#  k  (h/Mpc)          P(k)  (Mpc/h)^3     P_linear(k) (Mpc/h)^3
     0.00783031         1911.46         1931.07 
       0.013688         2376.28         2376.67 
       0.019231         2397.74         2396.59 
      0.0249154         2189.51         2204.58 
      0.0312784         1895.49         1898.09 
      0.0375637         1614.42         1609.79 
      0.0433917         1396.23         1399.75 
      0.0492413         1251.04         1249.88 
      0.0555754         1132.76         1140.38 
      0.0619321         1065.08          1059.8 
       0.067871         984.183          989.57 
      0.0738098         906.481         911.933 
      0.0800417         812.724         820.398 
      0.0862327         723.207         726.023 
      0.0921407         642.659         642.267 
      0.0982031          569.19         570.493 
       0.104506         519.447         514.609 
       0.110769         480.335          476.47 
       0.116806         451.703         451.291 
       0.122832         433.839         431.477 
       0.129052          409.79          410.93 
       0.135211         386.005         386.995 
       0.141259         361.307         359.505 
       0.147318         333.694          329.89 
       0.153489         303.334         300.645 
       0.159709         278.989         274.948 
       0.165845         261.636         254.839 
       0.171974         244.384         239.978 
       0.178125          233.92         229.127 
       0.184229         225.722         220.584 
        0.19034         214.279         212.435 
       0.196428         207.513         203.429 
       0.202534         199.079         193.032 
       0.208729         186.578         181.429 
       0.214876         174.108         169.733 
       0.220989         165.484         158.876 
       0.227147         154.556          149.43 
        0.23329         147.133         141.764 
       0.239377         141.943          135.73 
       0.245482         134.966         130.772 
       0.251667         132.117         126.274 
       0.257832         127.485         121.785 
       0.263955         122.598         117.017 
       0.270079         117.593         111.897 
        0.27624         113.638         106.562 
       0.282372         108.513          101.36 
        0.28843         103.326         96.5903 
       0.294538         98.9428         92.3312 
       0.300721         96.3141         88.6218 
        0.30691         92.1014         85.4255 
       0.313033         89.3672         82.6098 
       0.319153         85.4174         79.9558 
       0.325316          84.046         77.3006 
        0.33145         80.8745         74.6007 
       0.337538         78.6314         71.8671 
       0.343633         75.6499         69.1377 
       0.349808         73.2291         66.4646 
       0.355968         70.9465         63.9711 
       0.362074         68.5561         61.7088 
       0.368217         66.5042         59.6523 
       0.374374         64.4504         57.7733 
       0.380519         62.8581         56.0273 
       0.386598         61.1757         54.3756 
       0.392688         59.8489         52.7502 
        0.39888         58.0531         51.1116 
       0.405048         56.5874         49.4957 
       0.411186         55.1558          47.919 
       0.417313         53.3072         46.4042 
       0.423458         51.9145         44.9643 
       0.429607         50.4822         43.6105 
       0.435692         48.9028         42.3587 
       0.441815         48.0804         41.1751 
       0.447964         47.2422          40.044 
       0.454126         45.3726         38.9528 
       0.460267         44.5856         37.8966 
       0.466387         43.2865         36.8664 
        0.47254         42.5901          35.853 
       0.478662         41.8118         34.8737 
       0.484765         40.5504         33.9326 
       0.490885         39.6202         33.0273 
       0.497035         39.0887          32.158 
       0.503198         38.0411         31.3285 
       0.509342         37.0654         30.5393 
       0.515458         36.3029         29.7843 
       0.521598         35.6793         29.0511 
       0.527764         34.9179         28.3364 
       0.533884         34.3163         27.6474 
           0.54         33.5633         26.9786 
       0.546137          33.015         26.3267 
       0.552299         32.4644         25.6927 
       0.558452         31.4608         25.0813 
       0.564573          31.005         24.4956 
       0.570708          30.493         23.9306 
       0.576825         29.7416         23.3875 
       0.582926         29.1846         22.8637 
       0.589034         28.4295         22.3549 
       0.595184         28.0603         21.8574 
       0.601379          27.528         21.3707 
       0.607522         27.0351         20.9022 
       0.613639         26.7579         20.4495 
       0.619772         26.0548         20.0092 
       0.625918          25.908         19.5812 
       0.632068         25.4758         19.1658 
       0.638161         24.9255         18.7665 
         0.6443         24.4302          18.376 
       0.650464         23.9953         17.9956 
       0.656582         23.8354         17.6291 
       0.662703         23.3801         17.2729 
       0.668861         22.9461         16.9247 
       0.675024         22.5372         16.5859 
       0.681124         22.1489         16.2597 
       0.687237         21.7888         15.9416 
       0.693381         21.5824         15.6304 
       0.699536         21.0184          15.327 
       0.705665         20.9233          15.033 
       0.711789         20.4854          14.747 
       0.717957         20.1991         14.4666 
        0.72409         19.8909         14.1952 
       0.730186         19.6173         13.9326 
       0.736317         19.4048         13.6752 
       0.742472         19.0747         13.4235 
       0.748622         18.8572         13.1785 
        0.75476         18.5058         12.9402 
       0.760888         18.2572         12.7082 
       0.767043         18.0405          12.481 
       0.773185         17.7037         12.2598 
       0.779291         17.6037         12.0454 
       0.785407         17.3697         11.8357 
       0.791564          17.066         11.6298 
       0.797719          16.711          11.429 
       0.803834         16.6711         11.2342 
       0.809972         16.5171         11.0432 
       0.816124         16.1381         10.8564 
       0.822261         15.9703         10.6744 
       0.828378         15.7915         10.4971 
       0.834502         15.6484         10.3238 
       0.840667         15.4158         10.1532 
       0.846816         15.1433          9.9871 
       0.852925         15.0036         9.82574 
       0.859047         14.8343         9.66764 
       0.865192         14.6987         9.51253 
       0.871341         14.5681         9.36075 
       0.877463         14.3093           9.213 
       0.883569         14.1207         9.06883 
       0.889708          13.904         8.92704 
       0.895864         13.8022         8.78794 
       0.902008         13.6888         8.65211 
       0.908149         13.5364         8.51926 
       0.914301         13.4136           8.389 
       0.920448         13.1723         8.26161 
       0.926574         13.0474         8.13733 
       0.932687         12.9141          8.0159 
       0.938823         12.7411         7.89652 
       0.944975         12.5911         7.77932 
       0.951105         12.4809         7.66494 
       0.957225         12.3848         7.55307 
       0.963368         12.2498         7.44306 
       0.969511         12.1323         7.33526 
       0.975621          12.005         7.23019 
       0.981748         11.8592         7.12692 
       0.987916         11.7765         7.02503 
        0.99406         11.6024         6.92553 
        1.00019         11.4328         6.82816 
        1.00632         11.4139         6.73277 
        1.01246         11.2856         6.63907 
        1.01859         11.1137         6.54732 
        1.02471         11.0556         6.45743 
        1.03085         10.9439         6.36893 
        1.03698          10.782         6.28229 
        1.04314          10.722          6.1969 
        1.04929         10.5819         6.11331 
        1.05541         10.4664         6.03161 
        1.06154         10.3929         5.95121 
        1.06769         10.3425         5.87217 
        1.07382          10.189         5.79482 
        1.07993         10.1106         5.71905 
        1.08607         10.0231         5.64433 
        1.09222         9.93765         5.57088 
        1.09836         9.82263         5.49882 
        1.10449         9.74248         5.42813 
        1.11063         9.64574         5.35862 
        1.11677         9.59606         5.29035 
         1.1229         9.52554         5.22339 
        1.12903         9.40708         5.15755 
        1.13518         9.29659         5.09279 
        1.14131         9.23124         5.02918 
        1.14745         9.14632         4.96671 
        1.15359         9.08758         4.90529 
        1.15973         9.00554         4.84489 
        1.16584         8.87586         4.78578 
        1.17197         8.82396         4.72758 
        1.17811         8.78231         4.67017 
        1.18424         8.70083         4.61389 
        1.19038         8.66091         4.55838 
        1.19652         8.56092         4.50381 
        1.20267         8.47209         4.45013 
        1.20881         8.44942         4.39735 
        1.21495         8.37451          4.3455 
        1.22108         8.27472         4.29451 
         1.2272         8.22417         4.24445 
        1.23334         8.13428         4.19509 
        1.23949          8.0664         4.14639 
        1.24562         8.03123         4.09861 
        1.25174         7.96477         4.05166 
        1.25789         7.90603          4.0053 
        1.26402         7.86347         3.95976 
        1.27014          7.7939         3.91504 
        1.27628         7.70208         3.87088 
        1.28244         7.63339         3.82732 
        1.28858         7.62806         3.78449 
        1.29471         7.53942         3.74242 
        1.30084           7.467         3.70103 
        1.30697         7.46442          3.6602 
        1.31312         7.34277         3.61994 
        1.31925         7.29933         3.58041 
        1.32537         7.25277         3.54151 
        1.33151         7.22294         3.50306 
        1.33765         7.14583          3.4652 
        1.34378         7.09394         3.42797 
        1.34992         7.04916         3.39127 
        1.35606         6.99232         3.35503 
         1.3622          6.9548         3.31938 
        1.36833         6.89558         3.28434 
        1.37445         6.85404         3.24983 
        1.38059         6.82932          3.2157 
        1.38675         6.76742         3.18199 
        1.39288         6.73043          3.1489 
        1.39901         6.65287         3.11629 
        1.40515         6.62329         3.08407 
         1.4113         6.58024         3.05233 
        1.41742         6.53474         3.02115 
        1.42355         6.47531         2.99035 
         1.4297         6.43901         2.95989 
        1.43585         6.41243         2.92987 
        1.44198         6.38357         2.90038 
        1.44809         6.32212         2.87136 
        1.45423         6.27368         2.84262 
        1.46036         6.22952         2.81434 
        1.46649         6.19364         2.78643 
        1.47263         6.14077         2.75887 
        1.47877         6.10399         2.73171 
        1.48491         6.06998         2.70486 
        1.49104         6.03197         2.67844 
        1.49718         5.99855         2.65235 
        1.50333         5.96374         2.62657 
        1.50947         5.91539         2.60118 
         1.5156         5.88357         2.57617 
        1.52172         5.85136         2.55148 
        1.52787         5.81519         2.52708 
          1.534         5.76838         2.50302 
        1.54013         5.74604          2.4793 
        1.54627         5.69326         2.45584 
        1.55241         5.66365         2.43269 
        1.55855          5.6418         2.40987 
        1.56467         5.59784          2.3874 
         1.5708         5.57428         2.36516 
        1.57695         5.52335         2.34317 
        1.58308         5.48567         2.32151 
        1.58922          5.4732         2.30011 
        1.59535         5.44502         2.27899 
         1.6015         5.39802          2.2581 
        1.60764         5.36148         2.23749 
        1.61376         5.34097          2.2172 
        1.61989         5.31122         2.19714 
        1.62604         5.27192         2.17728 
        1.63218         5.26099         2.15768 
        1.63831         5.22466         2.13837 
        1.64444         5.19732         2.11929 
        1.65059         5.14005          2.1004 
        1.65673         5.14081         2.08176 
        1.66285         5.08857          2.0634 
        1.66898         5.06636         2.04526 
        1.67512         5.03981         2.02729 
        1.68127         5.00971         2.00953 
         1.6874         4.99347         1.99202 
        1.69353         4.94961         1.97473 
        1.69967         4.93083         1.95761 
        1.70581         4.90547         1.94069 
        1.71193         4.87534         1.92404 
        1.71806         4.85715         1.90755 
        1.72421         4.82264         1.89122 
        1.73035         4.80773          1.8751 
        1.73649         4.77736         1.85918 
        1.74262           4.745         1.84345 
        1.74876          4.7302         1.82789 
        1.75489         4.70747         1.81254 
        1.76101         4.66768         1.79738 
        1.76715         4.65495         1.78237 
        1.77329         4.63111         1.76751 
        1.77943         4.58933         1.75282 
        1.78557         4.58226         1.73831 
        1.79171         4.55347         1.72397 
        1.79785         4.52926         1.70979 
        1.80399         4.50187         1.69577 
        1.81012         4.48363         1.68193 
        1.81625          4.4603         1.66824 
        1.82239         4.44032         1.65469 
        1.82853         4.41311          1.6413 
        1.83466         4.39814         1.62807 
        1.84078         4.37669           1.615 
        1.84692          4.3646         1.60205 
        1.85306         4.32569         1.58923 
         1.8592         4.30069         1.57657 
        1.86533         4.28442         1.56406 
        1.87147         4.26844         1.55166 
        1.87761         4.24273          1.5394 
        1.88375         4.22202         1.52728 
        1.88988         4.19968         1.51531 
        1.89601         4.18239         1.50346 
        1.90215         4.16462         1.49172 
        1.90829         4.13743         1.48012 
        1.91442         4.12278         1.46864 
        1.92056          4.1001         1.45729 
         1.9267         4.07835         1.44605 
        1.93284         4.06355         1.43492 
        1.93897         4.04268         1.42393 
        1.94509         4.02248         1.41308 
        1.95123           4.002         1.40232 
        1.95737         3.97705         1.39165 
        1.96349         3.96828         1.38113 
        1.96964         3.95346         1.37069 
        1.97578         3.92281         1.36035 
        1.98192         3.91439         1.35014 
        1.98805         3.89768         1.34003 
        1.99419         3.87708         1.33002 
        2.00033         3.86518         1.32012 
        2.00647         3.84161         1.31031 
         2.0126         3.83045         1.30063 
        2.01874         3.80124         1.29102 
        2.02488         3.79441         1.28151 
        2.03101         3.76426         1.27211 
        2.03714         3.75222         1.26281 
        2.04328         3.73513          1.2536 
        2.04941         3.71154         1.24448 
        2.05554         3.70154         1.23546 
        2.06167         3.69033         1.22652 
        2.06781         3.67037         1.21767 
        2.07396         3.66028         1.20889 
        2.08009         3.64155         1.20021 
        2.08622         3.62043         1.19163 
        2.09237         3.60772         1.18312 
        2.09851         3.59418         1.17469 
        2.10464         3.57937         1.16635 
        2.11077         3.55838         1.15811 
        2.11691          3.5449         1.14992 
        2.12305         3.53388         1.14182 
        2.12918         3.52371         1.13381 
        2.13531         3.50616         1.12588 
        2.14145         3.49069         1.11801 
         2.1476         3.46949          1.1102 
        2.15372         3.45618         1.10251 
        2.15985         3.45061         1.09488 
        2.16599         3.42814          1.0873 
        2.17213         3.41221          1.0798 
        2.17827         3.40413         1.07238 
         2.1844         3.38585         1.06503 
        2.19054         3.37541         1.05775 
        2.19666         3.35717         1.05054 
         2.2028         3.34264          1.0434 
        2.20893         3.33238         1.03632 
        2.21508         3.31452          1.0293 
        2.22122         3.30174         1.02234 
        2.22736         3.29002         1.01546 
        2.23349         3.28166         1.00865 
        2.23962         3.26412         1.00189 
        2.24577         3.25129        0.995189 
         2.2519         3.24219         0.98856 
        2.25802         3.22659        0.982002 
        2.26417         3.21638        0.975485 
        2.27031         3.19915        0.969022 
        2.27644         3.18669        0.962636 
        2.28257         3.17172        0.956308 
        2.28872         3.16669        0.950025 
        2.29486         3.14863          0.9438 
        2.30099          3.1348        0.937644 
        2.30712         3.12256         0.93154 
        2.31326          3.1092         0.92548 
         2.3194         3.10088        0.919477 
        2.32553         3.08786        0.913538 
        2.33166         3.08015        0.907654 
         2.3378         3.06546        0.901814 
        2.34394         3.05437        0.896024 
        2.35007         3.04007        0.890292 
        2.35619         3.03304        0.884618 
        2.36233         3.02187         0.87898 
        2.36848          3.0042         0.87338 
        2.37462         3.00015         0.86784 
        2.38075         2.98456        0.862353 
        2.38689         2.97794        0.856909 
        2.39303         2.96383        0.851513 
        2.39916         2.95239         0.84617 
        2.40529         2.94201        0.840872 
        2.41143         2.93077        0.835616 
        2.41757         2.92048        0.830403 
         2.4237         2.91215        0.825243 
        2.42983          2.8881        0.820128 
        2.43598         2.88972        0.815043 
        2.44211          2.8722        0.810009 
        2.44823         2.86748        0.805029 
        2.45437         2.85195        0.800078 
        2.46052         2.84751        0.795164 
        2.46665         2.83689          0.7903 
        2.47279         2.82463        0.785478 
        2.47892           2.816        0.780694 
        2.48507         2.80541        0.775944 
         2.4912         2.78879        0.771244 
