# k  (h/Mpc)    P(k)  (Mpc/h)^3    P_linear(k)  (Mpc/h)^3
     0.00783031          3719.9         3776.34 
       0.013688         4636.77         4641.74 
       0.019231          4670.2         4676.34 
      0.0249154         4250.13          4298.9 
      0.0312784         3683.19         3699.66 
      0.0375637         3141.16         3136.89 
      0.0433917          2709.6          2727.1 
      0.0492413         2431.38         2434.77 
      0.0555754         2194.25          2221.2 
      0.0619321         2073.01         2064.08 
       0.067871          1907.6         1927.18 
      0.0738098         1756.95         1775.89 
      0.0800417         1572.81         1597.56 
      0.0862327         1402.49         1413.74 
      0.0921407         1250.03         1250.61 
      0.0982031         1106.24         1110.82 
       0.104506         1014.77         1001.99 
       0.110769         938.136         927.711 
       0.116806         881.277         878.674 
       0.122832         846.771         840.085 
       0.129052         796.967         800.071 
       0.135211         751.504         753.463 
       0.141259         705.877         699.934 
       0.147318         653.426         642.271 
       0.153489         593.804         585.329 
       0.159709         548.838         535.295 
       0.165845          516.87         496.143 
       0.171974         483.107         467.207 
       0.178125          462.41         446.081 
       0.184229         446.182         429.445 
        0.19034          421.21         413.579 
       0.196428         410.112         396.044 
       0.202534         394.501         375.802 
       0.208729         370.355         353.212 
       0.214876         346.221          330.44 
       0.220989         330.689         309.302 
       0.227147         309.597         290.912 
        0.23329         295.426         275.988 
       0.239377         286.362         264.241 
       0.245482         270.192         254.587 
       0.251667         265.872          245.83 
       0.257832         256.963         237.091 
       0.263955         247.202         227.808 
       0.270079         237.381         217.841 
        0.27624         231.011         207.454 
       0.282372         220.955         197.327 
        0.28843         211.344         188.041 
       0.294538         202.181          179.75 
       0.300721          198.26         172.528 
        0.30691         189.283         166.305 
       0.313033         184.224         160.823 
       0.319153         176.263         155.657 
       0.325316         172.932         150.487 
        0.33145           166.6         145.231 
       0.337538         163.159         139.909 
       0.343633         157.268         134.595 
       0.349808          152.22         129.391 
       0.355968          148.46         124.537 
       0.362074         143.822         120.133 
       0.368217         139.712         116.129 
       0.374374         135.583         112.471 
       0.380519         132.521         109.072 
       0.386598         128.988         105.856 
       0.392688         126.624         102.692 
        0.39888         123.144         99.5024 
       0.405048         120.164         96.3562 
       0.411186         117.366          93.287 
       0.417313         114.045         90.3378 
       0.423458         111.362         87.5348 
       0.429607         108.513         84.8989 
       0.435692         104.948         82.4624 
       0.441815         103.912          80.158 
       0.447964         102.138         77.9561 
       0.454126         97.6939         75.8317 
       0.460267         96.4278         73.7755 
       0.466387         94.3623         71.7701 
        0.47254         92.7171         69.7971 
       0.478662         91.3672         67.8906 
       0.484765         88.7312         66.0584 
       0.490885         87.0019         64.2961 
       0.497035         85.8709         62.6036 
       0.503198         83.5057          60.989 
       0.509342         81.5865         59.4524 
       0.515458         80.2691         57.9827 
       0.521598         79.1135         56.5554 
       0.527764         77.7286         55.1639 
       0.533884         76.4276         53.8226 
           0.54         74.8696         52.5206 
       0.546137         74.0015         51.2516 
       0.552299         72.8715         50.0172 
       0.558452         70.8807         48.8271 
       0.564573         69.6398         47.6867 
       0.570708         68.7807          46.587 
       0.576825         67.5032         45.5296 
       0.582926         66.1492         44.5098 
       0.589034         64.7304         43.5195 
       0.595184         63.9513         42.5508 
       0.601379         63.0633         41.6034 
       0.607522         61.5707         40.6914 
       0.613639         61.3391         39.8101 
       0.619772          59.834          38.953 
       0.625918         59.4047         38.1198 
       0.632068          58.563          37.311 
       0.638161         57.6295         36.5336 
         0.6443          56.699         35.7734 
       0.650464         55.8494          35.033 
       0.656582         55.3322         34.3194 
       0.662703         54.2161          33.626 
       0.668861         53.5128         32.9482 
       0.675024         52.7531         32.2886 
       0.681124         51.8871         31.6536 
       0.687237         51.0133         31.0343 
       0.693381         50.6146         30.4285 
       0.699536         49.6015         29.8378 
       0.705665         49.7773         29.2654 
       0.711789         48.4556         28.7087 
       0.717957         47.9816         28.1629 
        0.72409         47.3322         27.6345 
       0.730186         46.5867         27.1231 
       0.736317         46.3274         26.6222 
       0.742472         45.5541         26.1322 
       0.748622         45.1678         25.6552 
        0.75476         44.5597         25.1912 
       0.760888         43.8806         24.7396 
       0.767043         43.4163         24.2973 
       0.773185         42.8011         23.8668 
       0.779291         42.6139         23.4493 
       0.785407         42.1678         23.0412 
       0.791564         41.4591         22.6403 
       0.797719         40.7013         22.2493 
       0.803834         40.6319         21.8701 
       0.809972         40.0646         21.4984 
       0.816124         39.3835         21.1346 
       0.822261         39.1254         20.7803 
       0.828378         38.8321         20.4352 
       0.834502         38.3666         20.0977 
       0.840667          37.987         19.7658 
       0.846816          37.407         19.4423 
       0.852925         37.0934         19.1282 
       0.859047         36.6256         18.8204 
       0.865192         36.3359         18.5185 
       0.871341         36.1709          18.223 
       0.877463         35.4332         17.9353 
       0.883569          35.147         17.6547 
       0.889708         34.8567         17.3787 
       0.895864         34.5353         17.1079 
       0.902008         34.2452         16.8434 
       0.908149         33.9111         16.5848 
       0.914301         33.7769         16.3312 
       0.920448         33.1858         16.0832 
       0.926574         32.9581         15.8413 
       0.932687         32.6237         15.6049 
       0.938823         32.1738         15.3725 
       0.944975         32.0205         15.1443 
       0.951105         31.7204         14.9217 
       0.957225         31.3378         14.7039 
       0.963368         31.2395         14.4897 
       0.969511         30.9499         14.2799 
       0.975621         30.6999         14.0753 
       0.981748         30.2739         13.8743 
       0.987916         30.1325         13.6759 
        0.99406         29.8478         13.4822 
        1.00019         29.4858         13.2927 
        1.00632         29.3344          13.107 
        1.01246         29.1409         12.9246 
        1.01859         28.7181          12.746 
        1.02471          28.694          12.571 
        1.03085         28.4179         12.3987 
        1.03698         27.9956           12.23 
        1.04314         27.8089         12.0638 
        1.04929         27.5909          11.901 
        1.05541         27.3037          11.742 
        1.06154         27.2028         11.5855 
        1.06769         27.0014         11.4316 
        1.07382         26.7466          11.281 
        1.07993         26.6414         11.1335 
        1.08607         26.2785         10.9881 
        1.09222         26.1846         10.8451 
        1.09836         25.8866         10.7048 
        1.10449         25.7469         10.5672 
        1.11063         25.4225         10.4318 
        1.11677          25.346         10.2989 
         1.1229         25.2329         10.1686 
        1.12903          24.892         10.0404 
        1.13518         24.7118         9.91435 
        1.14131         24.6566         9.79052 
        1.14745         24.4265          9.6689 
        1.15359         24.3267         9.54933 
        1.15973         24.0501         9.43174 
        1.16584         23.7926         9.31668 
        1.17197         23.8283         9.20338 
        1.17811         23.5005         9.09162 
        1.18424         23.3129         8.98206 
        1.19038         23.2651         8.87399 
        1.19652         23.1029         8.76775 
        1.20267          22.928         8.66326 
        1.20881         22.7636          8.5605 
        1.21495         22.6153         8.45957 
        1.22108         22.4475          8.3603 
         1.2272         22.2175         8.26286 
        1.23334         22.1353         8.16675 
        1.23949         21.9477         8.07196 
        1.24562         21.8711         7.97894 
        1.25174         21.7431         7.88753 
        1.25789         21.5733         7.79729 
        1.26402         21.4825         7.70863 
        1.27014         21.2503         7.62157 
        1.27628         21.0885          7.5356 
        1.28244         21.0274          7.4508 
        1.28858         20.9414         7.36742 
        1.29471         20.7583         7.28552 
        1.30084         20.6094         7.20494 
        1.30697          20.477         7.12547 
        1.31312         20.2915         7.04708 
        1.31925         20.1928         6.97013 
        1.32537         20.1337         6.89441 
        1.33151         19.9506         6.81955 
        1.33765         19.8858         6.74584 
        1.34378         19.7784         6.67338 
        1.34992         19.5301         6.60193 
        1.35606         19.4996         6.53138 
         1.3622         19.3783         6.46198 
        1.36833         19.2363         6.39377 
        1.37445         19.2045         6.32657 
        1.38059         19.0572         6.26014 
        1.38675         18.8536         6.19451 
        1.39288          18.825         6.13009 
        1.39901          18.671         6.06661 
        1.40515         18.6009         6.00389 
         1.4113         18.4678         5.94209 
        1.41742         18.3169          5.8814 
        1.42355         18.2747         5.82144 
         1.4297         18.1775         5.76215 
        1.43585         18.1228          5.7037 
        1.44198         17.9366          5.6463 
        1.44809         17.8648         5.58979 
        1.45423         17.7741         5.53386 
        1.46036         17.7024         5.47879 
        1.46649         17.5958         5.42445 
        1.47263         17.4595         5.37082 
        1.47877         17.3797         5.31793 
        1.48491         17.3013         5.26567 
        1.49104         17.2524         5.21423 
        1.49718         17.0954         5.16344 
        1.50333         17.0405         5.11325 
        1.50947         16.9646         5.06383 
         1.5156         16.8116         5.01513 
        1.52172         16.7218         4.96708 
        1.52787         16.6833         4.91957 
          1.534         16.5588         4.87273 
        1.54013         16.4316         4.82655 
        1.54627         16.3777         4.78089 
        1.55241         16.2895         4.73582 
        1.55855         16.2023         4.69139 
        1.56467         16.1296         4.64765 
         1.5708         16.0917         4.60435 
        1.57695         15.9394         4.56154 
        1.58308         15.9256         4.51938 
        1.58922         15.8216         4.47772 
        1.59535         15.7337          4.4366 
         1.6015         15.6385         4.39595 
        1.60764         15.5852         4.35582 
        1.61376         15.5177         4.31631 
        1.61989          15.378         4.27726 
        1.62604         15.3772          4.2386 
        1.63218         15.2672         4.20045 
        1.63831         15.2271         4.16286 
        1.64444         15.0912         4.12572 
        1.65059         15.0313         4.08894 
        1.65673         14.9983         4.05265 
        1.66285           14.87         4.01691 
        1.66898         14.8509         3.98158 
        1.67512         14.7773         3.94662 
        1.68127         14.6875         3.91204 
         1.6874         14.6105         3.87795 
        1.69353         14.5548          3.8443 
        1.69967         14.4692         3.81096 
        1.70581         14.4072         3.77803 
        1.71193         14.3237         3.74561 
        1.71806         14.2814         3.71351 
        1.72421          14.192         3.68172 
        1.73035         14.1487         3.65034 
        1.73649         14.0767         3.61934 
        1.74262         14.0507         3.58872 
        1.74876         13.9652         3.55843 
        1.75489         13.9046         3.52856 
        1.76101         13.8127         3.49904 
        1.76715         13.8093         3.46981 
        1.77329         13.7002         3.44089 
        1.77943         13.6315         3.41229 
        1.78557          13.595         3.38405 
        1.79171         13.5553         3.35613 
        1.79785         13.4429         3.32852 
        1.80399         13.4012         3.30123 
        1.81012          13.365         3.27428 
        1.81625         13.2787         3.24764 
        1.82239         13.2424         3.22126 
        1.82853         13.1382         3.19519 
        1.83466         13.0946         3.16944 
        1.84078         13.0054         3.14399 
        1.84692         13.0007         3.11878 
        1.85306           12.93         3.09383 
         1.8592         12.8746         3.06918 
        1.86533         12.8345         3.04481 
        1.87147         12.7701         3.02069 
        1.87761         12.7328         2.99681 
        1.88375         12.6255         2.97322 
        1.88988         12.6203         2.94991 
        1.89601         12.5588         2.92684 
        1.90215         12.4893           2.904 
        1.90829         12.4498         2.88141 
        1.91442         12.3961         2.85906 
        1.92056         12.3514         2.83697 
         1.9267         12.2978         2.81509 
        1.93284         12.2262         2.79342 
        1.93897          12.166         2.77203 
        1.94509         12.1251          2.7509 
        1.95123         12.0847         2.72995 
        1.95737         12.0385         2.70919 
        1.96349         11.9842         2.68871 
        1.96964         11.9283         2.66838 
        1.97578         11.8862         2.64825 
        1.98192         11.8145         2.62837 
        1.98805         11.7929         2.60869 
        1.99419         11.7289         2.58922 
        2.00033         11.6908         2.56993 
        2.00647         11.6538         2.55085 
         2.0126         11.5708         2.53199 
        2.01874         11.5332         2.51329 
        2.02488         11.4703         2.49477 
        2.03101         11.4688         2.47647 
        2.03714          11.415         2.45837 
        2.04328          11.356         2.44043 
        2.04941         11.2931         2.42268 
        2.05554          11.289         2.40513 
        2.06167         11.2201         2.38772 
        2.06781         11.1952         2.37049 
        2.07396         11.1574          2.3534 
        2.08009         11.1061         2.33651 
        2.08622         11.0288          2.3198 
        2.09237         11.0202         2.30323 
        2.09851         10.9763         2.28681 
        2.10464         10.9186         2.27059 
        2.11077         10.8726         2.25454 
        2.11691         10.8304         2.23861 
        2.12305         10.7968         2.22283 
        2.12918         10.7542         2.20724 
        2.13531         10.7213          2.1918 
        2.14145         10.6699         2.17648 
         2.1476         10.6436         2.16128 
        2.15372         10.5984          2.1463 
        2.15985         10.5533         2.13145 
        2.16599         10.5189          2.1167 
        2.17213         10.4898          2.1021 
        2.17827         10.4457         2.08765 
         2.1844         10.4041         2.07334 
        2.19054         10.3435         2.05917 
        2.19666         10.3289         2.04514 
         2.2028         10.2833         2.03124 
        2.20893         10.2619         2.01745 
        2.21508         10.1991         2.00378 
        2.22122         10.1558         1.99024 
        2.22736         10.1272         1.97684 
        2.23349         10.0722         1.96357 
        2.23962         10.0594         1.95042 
        2.24577         10.0055         1.93738 
         2.2519         9.98694         1.92447 
        2.25802         9.94231         1.91171 
        2.26417          9.9091         1.89902 
        2.27031         9.86653         1.88644 
        2.27644          9.8285         1.87401 
        2.28257         9.80444         1.86169 
        2.28872         9.75668         1.84946 
        2.29486         9.73473         1.83734 
        2.30099         9.72012         1.82535 
        2.30712         9.67057         1.81347 
        2.31326         9.63269         1.80167 
         2.3194         9.58097         1.78999 
        2.32553         9.56279         1.77843 
        2.33166         9.50445         1.76697 
         2.3378         9.49146          1.7556 
        2.34394         9.45651         1.74433 
        2.35007         9.41018         1.73317 
        2.35619         9.37616         1.72213 
        2.36233         9.33665         1.71115 
        2.36848         9.33067         1.70025 
        2.37462         9.29379         1.68946 
        2.38075         9.23379         1.67878 
        2.38689         9.21407         1.66818 
        2.39303         9.18523         1.65768 
        2.39916         9.16049         1.64728 
        2.40529         9.13281         1.63696 
        2.41143         9.09246         1.62673 
        2.41757         9.07556         1.61658 
         2.4237         9.03113         1.60654 
        2.42983         8.99988         1.59658 
        2.43598         8.98847         1.58668 
        2.44211         8.93479         1.57688 
        2.44823         8.90834         1.56719 
        2.45437         8.89105         1.55755 
        2.46052         8.84045         1.54798 
        2.46665         8.81276         1.53851 
        2.47279         8.78273         1.52913 
        2.47892         8.74997         1.51981 
        2.48507         8.72358         1.51057 
         2.4912         8.69973         1.50142 
