# k  (h/Mpc)    P(k)  (Mpc/h)^3    P_linear(k)  (Mpc/h)^3
     0.00783031         8400.55          8529.5 
       0.013688         10518.2         10480.1 
       0.019231         10558.5         10556.2 
      0.0249154         9549.21         9702.99 
      0.0312784         8287.76         8349.72 
      0.0375637         7085.12         7079.21 
      0.0433917         6082.16         6154.18 
      0.0492413         5472.02         5494.33 
      0.0555754         4906.45         5012.27 
      0.0619321         4672.52         4657.63 
       0.067871         4267.05         4348.66 
      0.0738098         3931.01         4007.23 
      0.0800417         3509.36         3604.81 
      0.0862327         3141.67            3190 
      0.0921407          2818.4         2821.89 
      0.0982031         2493.77         2506.47 
       0.104506         2308.17         2260.88 
       0.110769         2133.34         2093.27 
       0.116806         2005.05         1982.62 
       0.122832         1923.35         1895.54 
       0.129052         1798.97         1805.25 
       0.135211         1700.21         1700.08 
       0.141259         1607.31          1579.3 
       0.147318         1494.64         1449.19 
       0.153489            1359         1320.71 
       0.159709         1268.13         1207.81 
       0.165845         1203.71         1119.47 
       0.171974         1130.17         1054.18 
       0.178125         1079.66         1006.51 
       0.184229         1040.05         968.971 
        0.19034         977.384         933.171 
       0.196428         957.616         893.608 
       0.202534         922.695         847.934 
       0.208729         870.984         796.962 
       0.214876         820.534         745.581 
       0.220989         788.491         697.886 
       0.227147         745.092         656.392 
        0.23329          713.43         622.719 
       0.239377         696.812         596.212 
       0.245482         652.024         574.431 
       0.251667          646.07         554.672 
       0.257832          623.39         534.952 
       0.263955         601.679         514.007 
       0.270079         578.697         491.518 
        0.27624         569.288         468.083 
       0.282372          544.99         445.231 
        0.28843         529.016         424.279 
       0.294538         503.415         405.571 
       0.300721         499.274         389.277 
        0.30691         476.335         375.236 
       0.313033         466.483         362.867 
       0.319153         450.913          351.21 
       0.325316         438.439         339.546 
        0.33145         424.969         327.685 
       0.337538         418.958         315.678 
       0.343633          404.97         303.689 
       0.349808         391.428         291.946 
       0.355968          386.61         280.995 
       0.362074         378.028         271.057 
       0.368217         367.691         262.024 
       0.374374         353.635         253.769 
       0.380519         349.698         246.101 
       0.386598         340.916         238.845 
       0.392688         337.638         231.705 
        0.39888         328.285         224.508 
       0.405048         320.899         217.409 
       0.411186         314.346         210.484 
       0.417313         308.369          203.83 
       0.423458         302.374         197.505 
       0.429607         295.924         191.558 
       0.435692         287.964          186.06 
       0.441815         285.729         180.861 
       0.447964          280.17         175.893 
       0.454126         270.041         171.099 
       0.460267         266.685          166.46 
       0.466387         263.504         161.935 
        0.47254         257.729         157.484 
       0.478662         256.522         153.182 
       0.484765         248.471         149.048 
       0.490885         245.269         145.072 
       0.497035         241.566         141.253 
       0.503198         236.024          137.61 
       0.509342          233.59         134.143 
       0.515458         230.449         130.827 
       0.521598         226.401         127.606 
       0.527764         222.936         124.467 
       0.533884          220.14          121.44 
           0.54         216.801         118.503 
       0.546137         215.534         115.639 
       0.552299         211.248         112.854 
       0.558452         208.706         110.169 
       0.564573         205.337         107.596 
       0.570708         201.568         105.114 
       0.576825         199.001         102.729 
       0.582926          196.17         100.428 
       0.589034         193.855         98.1932 
       0.595184         191.764         96.0075 
       0.601379         189.692         93.8699 
       0.607522         185.829         91.8122 
       0.613639         184.911         89.8237 
       0.619772          180.88         87.8897 
       0.625918         179.318         86.0097 
       0.632068         177.124          84.185 
       0.638161         175.941         82.4308 
         0.6443         173.278         80.7157 
       0.650464         171.534          79.045 
       0.656582         169.732          77.435 
       0.662703         167.752         75.8705 
       0.668861         165.135          74.341 
       0.675024         163.247         72.8528 
       0.681124         162.403         71.4201 
       0.687237         159.672         70.0227 
       0.693381         157.449         68.6559 
       0.699536         156.356         67.3232 
       0.705665         156.107         66.0317 
       0.711789         152.842         64.7756 
       0.717957         152.357          63.544 
        0.72409         150.232         62.3518 
       0.730186         147.996          61.198 
       0.736317         147.057         60.0676 
       0.742472          146.13         58.9621 
       0.748622         144.773         57.8858 
        0.75476         143.502          56.839 
       0.760888         141.481         55.8199 
       0.767043         140.796          54.822 
       0.773185         139.289         53.8507 
       0.779291         137.197         52.9086 
       0.785407         136.532         51.9879 
       0.791564         135.301         51.0834 
       0.797719         133.286         50.2011 
       0.803834         132.693         49.3455 
       0.809972         131.173         48.5068 
       0.816124         130.905          47.686 
       0.822261         129.367         46.8865 
       0.828378         128.162          46.108 
       0.834502         127.742         45.3465 
       0.840667         125.904         44.5976 
       0.846816         124.701         43.8677 
       0.852925         123.936          43.159 
       0.859047         122.451         42.4645 
       0.865192         121.767         41.7832 
       0.871341         120.627         41.1166 
       0.877463         119.524         40.4676 
       0.883569         118.754         39.8343 
       0.889708         117.858         39.2115 
       0.895864         116.737         38.6005 
       0.902008         115.916         38.0039 
       0.908149         115.322         37.4203 
       0.914301         114.096         36.8482 
       0.920448         113.298         36.2886 
       0.926574         112.569         35.7427 
       0.932687         112.223         35.2093 
       0.938823         110.534          34.685 
       0.944975         109.562         34.1702 
       0.951105         109.032         33.6678 
       0.957225         107.776         33.1764 
       0.963368         107.087         32.6932 
       0.969511         106.791         32.2197 
       0.975621         106.273         31.7582 
       0.981748         105.409         31.3045 
       0.987916         104.314          30.857 
        0.99406         103.671         30.4199 
        1.00019         103.006         29.9923 
        1.00632           102.3         29.5733 
        1.01246         101.561         29.1617 
        1.01859         100.335         28.7587 
        1.02471         100.302         28.3639 
        1.03085         99.2779         27.9751 
        1.03698         98.7169         27.5946 
        1.04314         97.7907         27.2195 
        1.04929         97.2339         26.8523 
        1.05541         96.5125         26.4935 
        1.06154         96.0783         26.1403 
        1.06769         95.7069         25.7931 
        1.07382         95.1551         25.4534 
        1.07993         94.4192         25.1206 
        1.08607         93.6702         24.7924 
        1.09222         93.2618         24.4697 
        1.09836         92.5092         24.1532 
        1.10449          91.971         23.8427 
        1.11063          91.358         23.5374 
        1.11677         90.9296         23.2375 
         1.1229         89.9592         22.9434 
        1.12903          89.217         22.6542 
        1.13518         89.4565         22.3697 
        1.14131          88.685         22.0904 
        1.14745         87.8471         21.8159 
        1.15359         87.4399         21.5462 
        1.15973         87.0485         21.2808 
        1.16584          86.345         21.0212 
        1.17197         85.8828         20.7656 
        1.17811         85.3532         20.5134 
        1.18424         84.7606         20.2662 
        1.19038         84.2836         20.0224 
        1.19652          83.903         19.7827 
        1.20267         83.1814         19.5469 
        1.20881         82.7797         19.3151 
        1.21495         82.1888         19.0873 
        1.22108         81.7876         18.8633 
         1.2272         81.0792         18.6435 
        1.23334          80.799         18.4266 
        1.23949         80.2571         18.2128 
        1.24562         79.9307         18.0029 
        1.25174         79.4173         17.7966 
        1.25789         79.0582          17.593 
        1.26402         78.6498          17.393 
        1.27014         77.9109         17.1965 
        1.27628         77.7079         17.0026 
        1.28244         77.0656         16.8112 
        1.28858         76.7949         16.6231 
        1.29471         76.3764         16.4383 
        1.30084         75.8973         16.2565 
        1.30697         75.4534         16.0772 
        1.31312          75.052         15.9003 
        1.31925         74.7174         15.7267 
        1.32537         74.3844         15.5559 
        1.33151         73.6418         15.3869 
        1.33765         73.3067         15.2206 
        1.34378         72.8726         15.0571 
        1.34992         72.6501         14.8959 
        1.35606         72.2298         14.7367 
         1.3622         71.5956         14.5802 
        1.36833         71.4585         14.4263 
        1.37445         71.0159         14.2746 
        1.38059          70.483         14.1248 
        1.38675         70.1168         13.9767 
        1.39288         69.7062         13.8313 
        1.39901         69.6018         13.6881 
        1.40515         69.1478         13.5466 
         1.4113         68.7277         13.4071 
        1.41742         68.5903         13.2702 
        1.42355         67.9565         13.1349 
         1.4297         67.7119         13.0011 
        1.43585         67.1983         12.8693 
        1.44198         66.9631         12.7397 
        1.44809         66.6349         12.6122 
        1.45423         66.2805          12.486 
        1.46036         66.0537         12.3618 
        1.46649         65.6397         12.2392 
        1.47263         65.2097         12.1182 
        1.47877         65.0336         11.9988 
        1.48491          64.732         11.8809 
        1.49104         64.2685         11.7649 
        1.49718         63.8213         11.6503 
        1.50333         63.5965          11.537 
        1.50947         63.2628         11.4255 
         1.5156         62.9621         11.3156 
        1.52172         62.7086         11.2072 
        1.52787         62.5266            11.1 
          1.534         62.0956         10.9943 
        1.54013          61.704         10.8901 
        1.54627         61.4971         10.7871 
        1.55241         61.0658         10.6854 
        1.55855         60.7573         10.5852 
        1.56467         60.3393         10.4865 
         1.5708         60.2959         10.3888 
        1.57695         60.0198         10.2922 
        1.58308         59.5498         10.1971 
        1.58922         59.4909         10.1031 
        1.59535         59.2438         10.0103 
         1.6015         58.6555         9.91857 
        1.60764         58.5272         9.82803 
        1.61376         58.1783         9.73888 
        1.61989         57.8377         9.65077 
        1.62604          57.707         9.56356 
        1.63218         57.4992         9.47748 
        1.63831         57.1346         9.39266 
        1.64444         56.8259         9.30885 
        1.65059         56.4376         9.22587 
        1.65673         56.2914           9.144 
        1.66285         55.9524         9.06335 
        1.66898         55.7134         8.98364 
        1.67512         55.3631         8.90475 
        1.68127         55.0664         8.82673 
         1.6874         54.9291         8.74982 
        1.69353         54.6158         8.67388 
        1.69967         54.3344         8.59866 
        1.70581         54.2394         8.52436 
        1.71193         53.9828         8.45122 
        1.71806         53.4663         8.37879 
        1.72421         53.3939         8.30707 
        1.73035         53.0838         8.23626 
        1.73649         52.6794          8.1663 
        1.74262          52.632         8.09721 
        1.74876         52.3714         8.02888 
        1.75489         52.0641         7.96148 
        1.76101           51.89         7.89487 
        1.76715         51.5419         7.82894 
        1.77329         51.3517         7.76368 
        1.77943          51.067         7.69914 
        1.78557         50.9241         7.63543 
        1.79171         50.6163         7.57243 
        1.79785         50.4138         7.51013 
        1.80399         50.2038         7.44855 
        1.81012         50.0133         7.38775 
        1.81625         49.5429         7.32765 
        1.82239          49.433         7.26813 
        1.82853         49.0725         7.20931 
        1.83466         48.9872         7.15119 
        1.84078         48.6067         7.09378 
        1.84692         48.4109         7.03691 
        1.85306         48.2313         6.98059 
         1.8592         47.9205         6.92498 
        1.86533         47.7975         6.87001 
        1.87147         47.5837         6.81557 
        1.87761         47.4041          6.7617 
        1.88375         47.1385         6.70848 
        1.88988         47.0897         6.65588 
        1.89601          46.703         6.60383 
        1.90215         46.5244         6.55229 
        1.90829         46.3988         6.50132 
        1.91442         46.1218         6.45089 
        1.92056         45.8468         6.40104 
         1.9267          45.585         6.35167 
        1.93284          45.446         6.30279 
        1.93897         45.2459         6.25452 
        1.94509          44.944         6.20686 
        1.95123         44.8742         6.15957 
        1.95737         44.6132         6.11275 
        1.96349         44.3724         6.06653 
        1.96964         44.2986         6.02066 
        1.97578         43.9905         5.97524 
        1.98192         43.8335         5.93039 
        1.98805         43.6592         5.88599 
        1.99419         43.3521         5.84204 
        2.00033         43.1908         5.79853 
        2.00647         42.9979         5.75547 
         2.0126         42.7765         5.71292 
        2.01874         42.6438         5.67073 
        2.02488         42.5012         5.62894 
        2.03101         42.2145         5.58765 
        2.03714         42.0371         5.54681 
        2.04328          41.813         5.50633 
        2.04941         41.6006         5.46629 
        2.05554         41.3702         5.42668 
        2.06167         41.3311         5.38741 
        2.06781         41.0909         5.34853 
        2.07396         40.8852         5.30997 
        2.08009         40.7391         5.27186 
        2.08622         40.4776         5.23417 
        2.09237         40.3135         5.19677 
        2.09851         40.1242         5.15973 
        2.10464         39.9694         5.12312 
        2.11077          39.841          5.0869 
        2.11691         39.5953         5.05096 
        2.12305         39.3743         5.01536 
        2.12918         39.2437         4.98019 
        2.13531         39.0179         4.94536 
        2.14145         38.9299         4.91078 
         2.1476         38.7077         4.87648 
        2.15372          38.481         4.84269 
        2.15985         38.3556         4.80919 
        2.16599         38.3084          4.7759 
        2.17213         38.1534         4.74297 
        2.17827         37.8514         4.71035 
         2.1844         37.6886         4.67808 
        2.19054         37.5036         4.64609 
        2.19666         37.3592         4.61445 
         2.2028         37.1832         4.58307 
        2.20893         37.0808         4.55197 
        2.21508          36.917         4.52113 
        2.22122         36.6848         4.49056 
        2.22736         36.5559         4.46034 
        2.23349          36.426         4.43041 
        2.23962         36.1595         4.40073 
        2.24577         36.0263          4.3713 
         2.2519         35.8503         4.34218 
        2.25802         35.7712         4.31338 
        2.26417          35.588         4.28475 
        2.27031         35.4958         4.25636 
        2.27644         35.2087         4.22831 
        2.28257         35.1237         4.20052 
        2.28872         34.9047         4.17292 
        2.29486          34.844         4.14558 
        2.30099         34.6735         4.11854 
        2.30712         34.5187         4.09173 
        2.31326         34.4032         4.06511 
         2.3194         34.2262         4.03874 
        2.32553          34.058         4.01266 
        2.33166         33.9234         3.98681 
         2.3378         33.7336         3.96116 
        2.34394         33.5334         3.93572 
        2.35007         33.4338         3.91055 
        2.35619         33.3632         3.88563 
        2.36233         33.2465         3.86086 
        2.36848         32.9895         3.83626 
        2.37462         32.9307         3.81193 
        2.38075         32.7594         3.78783 
        2.38689         32.6987         3.76392 
        2.39303         32.4848         3.74022 
        2.39916         32.2966         3.71674 
        2.40529         32.0803         3.69347 
        2.41143         32.0593         3.67039 
        2.41757         31.9558         3.64749 
         2.4237         31.7681         3.62483 
        2.42983         31.6455         3.60236 
        2.43598         31.4543         3.58002 
        2.44211         31.3346         3.55791 
        2.44823         31.2133         3.53604 
        2.45437         31.1212         3.51429 
        2.46052         30.9055          3.4927 
        2.46665         30.8551         3.47134 
        2.47279         30.7118         3.45016 
        2.47892         30.5242         3.42914 
        2.48507         30.4168         3.40828 
         2.4912         30.2907         3.38764 
