# k  (h/Mpc)    Pcb(k)  (Mpc/h)^3    Pcb_linear(k)  (Mpc/h)^3
     0.00783031         14804.9         15018.1 
       0.013688         18630.3         18471.7 
       0.019231         18644.5         18615.4 
      0.0249154         16760.3         17116.2 
      0.0312784         14564.3         14732.2 
      0.0375637         12482.8         12492.2 
      0.0433917         10663.9         10860.9 
      0.0492413         9619.34         9697.09 
      0.0555754         8566.02         8846.79 
      0.0619321         8215.85         8221.19 
       0.067871         7447.26         7676.07 
      0.0738098         6864.89         7073.58 
      0.0800417         6112.89         6363.37 
      0.0862327         5494.91         5631.22 
      0.0921407         4965.87         4981.49 
      0.0982031         4400.47         4424.72 
       0.104506         4105.29         3991.23 
       0.110769         3795.22         3695.38 
       0.116806          3577.4         3500.06 
       0.122832         3419.07         3346.36 
       0.129052          3181.4         3186.98 
       0.135211         3011.88         3001.33 
       0.141259         2865.98         2788.12 
       0.147318         2680.25         2558.43 
       0.153489         2441.43         2331.61 
       0.159709          2295.7         2132.31 
       0.165845         2198.92         1976.35 
       0.171974          2076.1         1861.09 
       0.178125         1978.52         1776.94 
       0.184229         1897.94         1710.67 
        0.19034         1793.66         1647.47 
       0.196428         1757.53         1577.63 
       0.202534          1689.8            1497 
       0.208729         1606.52         1407.01 
       0.214876          1532.7          1316.3 
       0.220989         1476.56          1232.1 
       0.227147         1410.36         1158.84 
        0.23329         1353.52         1099.39 
       0.239377         1330.16          1052.6 
       0.245482         1246.69         1014.14 
       0.251667         1239.83         979.259 
       0.257832         1191.34         944.447 
       0.263955         1151.95         907.471 
       0.270079         1110.76         867.765 
        0.27624         1097.59         826.392 
       0.282372         1051.24         786.049 
        0.28843         1039.66         749.059 
       0.294538         987.017          716.03 
       0.300721         981.813         687.262 
        0.30691         941.521         662.475 
       0.313033         923.321         640.638 
       0.319153         904.305         620.057 
       0.325316         875.505         599.465 
        0.33145         854.415         578.527 
       0.337538         840.313         557.328 
       0.343633         819.184         536.161 
       0.349808         790.669         515.431 
       0.355968         785.421         496.094 
       0.362074         776.145          478.55 
       0.368217         752.584         462.601 
       0.374374         722.354         448.029 
       0.380519         722.359          434.49 
       0.386598         702.427          421.68 
       0.392688         700.058         409.075 
        0.39888         679.214         396.368 
       0.405048         668.828         383.836 
       0.411186         659.186         371.609 
       0.417313           645.6         359.862 
       0.423458          633.97         348.695 
       0.429607         625.022         338.196 
       0.435692         610.923         328.489 
       0.441815          605.81          319.31 
       0.447964         593.158         310.539 
       0.454126         584.765         302.076 
       0.460267         571.947         293.886 
       0.466387         565.523         285.897 
        0.47254         558.406         278.037 
       0.478662         554.984         270.443 
       0.484765         537.137         263.144 
       0.490885         533.289         256.124 
       0.497035         522.763         249.383 
       0.503198         518.157          242.95 
       0.509342         513.619          236.83 
       0.515458         509.439         230.975 
       0.521598         496.651         225.289 
       0.527764          488.04         219.746 
       0.533884         486.068         214.403 
           0.54         479.875         209.216 
       0.546137         477.252         204.162 
       0.552299         468.916         199.244 
       0.558452         466.334         194.503 
       0.564573         459.879         189.961 
       0.570708         453.538          185.58 
       0.576825         442.248         181.368 
       0.582926         442.311         177.306 
       0.589034         438.396          173.36 
       0.595184         434.566         169.502 
       0.601379         428.038         165.728 
       0.607522         422.099         162.095 
       0.613639         421.181         158.584 
       0.619772         411.673          155.17 
       0.625918         410.265         151.851 
       0.632068         403.936         148.629 
       0.638161          402.45         145.532 
         0.6443         395.518         142.504 
       0.650464         392.837         139.554 
       0.656582          390.09         136.712 
       0.662703         388.743          133.95 
       0.668861         381.948          131.25 
       0.675024         378.645         128.622 
       0.681124         375.789         126.093 
       0.687237         372.356         123.626 
       0.693381         367.177         121.212 
       0.699536         362.728          118.86 
       0.705665         360.801         116.579 
       0.711789         358.908         114.362 
       0.717957         355.851         112.187 
        0.72409         353.151         110.083 
       0.730186         348.713         108.046 
       0.736317         345.613          106.05 
       0.742472          343.93         104.098 
       0.748622         340.282         102.198 
        0.75476         336.378          100.35 
       0.760888         332.884         98.5504 
       0.767043         333.386         96.7886 
       0.773185         329.308         95.0738 
       0.779291          324.62         93.4105 
       0.785407         323.693          91.785 
       0.791564         319.708         90.1882 
       0.797719         317.332         88.6305 
       0.803834         314.461         87.1198 
       0.809972         313.644         85.6392 
       0.816124         312.925           84.19 
       0.822261         308.673         82.7786 
       0.828378         306.463          81.404 
       0.834502         303.985         80.0597 
       0.840667         301.239         78.7374 
       0.846816         299.728         77.4488 
       0.852925         297.766         76.1975 
       0.859047           295.7         74.9715 
       0.865192         292.192         73.7687 
       0.871341         290.059         72.5916 
       0.877463         288.998         71.4458 
       0.883569         287.323         70.3278 
       0.889708         284.381         69.2282 
       0.895864         282.178         68.1495 
       0.902008         280.381         67.0962 
       0.908149         278.478         66.0659 
       0.914301         275.419         65.0558 
       0.920448         273.904         64.0679 
       0.926574         270.971         63.1041 
       0.932687         271.246         62.1624 
       0.938823         268.124         61.2366 
       0.944975         267.262         60.3278 
       0.951105         265.185         59.4407 
       0.957225         263.358         58.5732 
       0.963368         260.009         57.7201 
       0.969511         259.048         56.8841 
       0.975621         256.801         56.0693 
       0.981748         256.492         55.2685 
       0.987916         254.518         54.4783 
        0.99406         251.033         53.7067 
        1.00019         250.748         52.9516 
        1.00632         249.193         52.2119 
        1.01246         247.095         51.4853 
        1.01859         247.475         50.7737 
        1.02471         243.466         50.0767 
        1.03085         241.929         49.3903 
        1.03698         241.039         48.7184 
        1.04314         238.606         48.0563 
        1.04929         237.136         47.4081 
        1.05541         237.561         46.7745 
        1.06154         233.881          46.151 
        1.06769         233.521          45.538 
        1.07382         231.769         44.9382 
        1.07993         230.103         44.3506 
        1.08607          229.51         43.7711 
        1.09222         227.673         43.2015 
        1.09836         226.004         42.6427 
        1.10449         223.717         42.0946 
        1.11063         221.933         41.5555 
        1.11677          221.61          41.026 
         1.1229         219.855         40.5068 
        1.12903         218.765         39.9962 
        1.13518         217.274          39.494 
        1.14131         215.511         39.0007 
        1.14745         215.419         38.5162 
        1.15359         213.452         38.0399 
        1.15973         211.919         37.5715 
        1.16584         210.405         37.1132 
        1.17197         210.335         36.6618 
        1.17811          207.88         36.2166 
        1.18424         206.815         35.7802 
        1.19038         206.253         35.3497 
        1.19652         204.537         34.9265 
        1.20267         204.062         34.5103 
        1.20881         202.193         34.1009 
        1.21495         201.071         33.6989 
        1.22108         199.848         33.3034 
         1.2272         198.406         32.9153 
        1.23334         197.708         32.5324 
        1.23949         196.174         32.1548 
        1.24562         195.319         31.7843 
        1.25174         193.881         31.4201 
        1.25789         192.547         31.0606 
        1.26402         191.035         30.7075 
        1.27014         189.832         30.3607 
        1.27628         189.104         30.0182 
        1.28244          188.96         29.6804 
        1.28858         186.787         29.3483 
        1.29471         185.426          29.022 
        1.30084         184.859          28.701 
        1.30697         183.327         28.3844 
        1.31312         182.032         28.0722 
        1.31925         181.378         27.7656 
        1.32537         180.632          27.464 
        1.33151         178.817         27.1658 
        1.33765         177.839         26.8722 
        1.34378          177.21         26.5835 
        1.34992         176.324         26.2989 
        1.35606         176.219         26.0179 
         1.3622         174.353         25.7414 
        1.36833         172.712         25.4697 
        1.37445         172.123          25.202 
        1.38059         170.791         24.9374 
        1.38675         170.258          24.676 
        1.39288         169.266         24.4193 
        1.39901         168.977         24.1665 
        1.40515         167.068         23.9166 
         1.4113         166.278         23.6704 
        1.41742         165.133         23.4287 
        1.42355          164.34         23.1898 
         1.4297         163.223         22.9536 
        1.43585         162.443         22.7208 
        1.44198         161.556         22.4921 
        1.44809         160.864          22.267 
        1.45423         159.961         22.0442 
        1.46036          158.82         21.8248 
        1.46649         157.761         21.6084 
        1.47263         156.815         21.3947 
        1.47877         156.012         21.1841 
        1.48491         154.525         20.9759 
        1.49104          154.49          20.771 
        1.49718         152.935         20.5687 
        1.50333         152.353         20.3687 
        1.50947         151.651         20.1718 
         1.5156         150.611         19.9779 
        1.52172         149.862         19.7865 
        1.52787         148.594         19.5972 
          1.534         148.193         19.4106 
        1.54013         147.249         19.2266 
        1.54627         146.446         19.0448 
        1.55241         145.449         18.8652 
        1.55855         144.616         18.6882 
        1.56467         143.728          18.514 
         1.5708         142.916         18.3415 
        1.57695         142.371          18.171 
        1.58308         141.626          18.003 
        1.58922         140.923         17.8371 
        1.59535         139.777         17.6733 
         1.6015         139.387         17.5113 
        1.60764         138.526         17.3515 
        1.61376         137.615         17.1941 
        1.61989         136.842         17.0385 
        1.62604          135.89         16.8846 
        1.63218         135.554         16.7326 
        1.63831          134.51         16.5828 
        1.64444         133.974         16.4349 
        1.65059         133.244         16.2884 
        1.65673         132.103         16.1438 
        1.66285         131.781         16.0014 
        1.66898         130.821         15.8607 
        1.67512         130.576         15.7214 
        1.68127         129.392         15.5837 
         1.6874         128.434         15.4479 
        1.69353         128.205         15.3138 
        1.69967          127.39          15.181 
        1.70581         126.639         15.0498 
        1.71193         125.911         14.9207 
        1.71806         125.364         14.7928 
        1.72421         124.561         14.6662 
        1.73035         124.407         14.5412 
        1.73649         123.439         14.4177 
        1.74262         122.548         14.2957 
        1.74876         122.157         14.1751 
        1.75489         121.222         14.0561 
        1.76101         120.463         13.9385 
        1.76715         119.996         13.8221 
        1.77329         119.658         13.7068 
        1.77943           118.6         13.5929 
        1.78557         118.177         13.4804 
        1.79171         117.345         13.3692 
        1.79785         116.719         13.2592 
        1.80399         115.996         13.1505 
        1.81012         115.503         13.0431 
        1.81625         114.921          12.937 
        1.82239         114.519          12.832 
        1.82853         113.696         12.7281 
        1.83466         112.961         12.6255 
        1.84078         112.567         12.5241 
        1.84692         111.607         12.4237 
        1.85306         111.391         12.3243 
         1.8592         110.634         12.2261 
        1.86533         109.753         12.1291 
        1.87147         109.347          12.033 
        1.87761         108.684         11.9378 
        1.88375         107.938         11.8439 
        1.88988         107.567          11.751 
        1.89601         106.857         11.6591 
        1.90215         106.359         11.5681 
        1.90829         105.832         11.4781 
        1.91442         105.278         11.3891 
        1.92056         104.564         11.3011 
         1.9267         104.283         11.2139 
        1.93284         103.688         11.1276 
        1.93897         102.998         11.0424 
        1.94509         102.589         10.9583 
        1.95123         101.977         10.8748 
        1.95737         101.485         10.7921 
        1.96349         100.917         10.7105 
        1.96964         100.047         10.6295 
        1.97578          99.601         10.5493 
        1.98192         99.4336         10.4702 
        1.98805         98.5793         10.3918 
        1.99419         98.3233         10.3142 
        2.00033          97.613         10.2373 
        2.00647         97.2722         10.1613 
         2.0126         96.5866         10.0862 
        2.01874         95.9916         10.0117 
        2.02488         95.6178         9.93794 
        2.03101         94.9225         9.86504 
        2.03714         94.3817         9.79294 
        2.04328         94.0629         9.72148 
        2.04941         93.5508         9.65079 
        2.05554         92.9705         9.58086 
        2.06167         92.6064         9.51153 
        2.06781         91.9492         9.44287 
        2.07396         91.5527          9.3748 
        2.08009          91.219         9.30751 
        2.08622         90.5782         9.24097 
        2.09237         90.0909         9.17494 
        2.09851         89.7035         9.10956 
        2.10464         89.2118         9.04491 
        2.11077          88.827         8.98098 
        2.11691         88.4396         8.91752 
        2.12305         87.7038         8.85467 
        2.12918         87.2201         8.79258 
        2.13531         86.9671         8.73107 
        2.14145         86.1923         8.67002 
         2.1476         85.7714         8.60948 
        2.15372         85.5133         8.54982 
        2.15985         85.0905         8.49066 
        2.16599         84.5276          8.4319 
        2.17213         84.1313         8.37375 
        2.17827         83.7105         8.31617 
         2.1844         83.1666         8.25918 
        2.19054         82.9588         8.20271 
        2.19666          82.448         8.14685 
         2.2028         82.0619         8.09145 
        2.20893         81.5762         8.03655 
        2.21508         81.1286          7.9821 
        2.22122         80.7124         7.92813 
        2.22736          80.355         7.87477 
        2.23349         79.9585         7.82192 
        2.23962         79.5232         7.76953 
        2.24577         79.1814         7.71757 
         2.2519         78.8188         7.66616 
        2.25802         78.2873         7.61531 
        2.26417         77.8645         7.56477 
        2.27031         77.5446         7.51465 
        2.27644         77.0301         7.46512 
        2.28257         76.6005         7.41605 
        2.28872         76.3328         7.36733 
        2.29486         75.7658         7.31906 
        2.30099         75.3519         7.27131 
        2.30712         75.1382         7.22398 
        2.31326         74.7394         7.17698 
         2.3194          74.303         7.13044 
        2.32553         73.9708         7.08438 
        2.33166         73.6118         7.03875 
         2.3378         73.0556         6.99346 
        2.34394         72.7614         6.94856 
        2.35007         72.4039         6.90411 
        2.35619         72.0838         6.86011 
        2.36233         71.6741         6.81638 
        2.36848         71.3051         6.77295 
        2.37462          70.827         6.72999 
        2.38075         70.6504         6.68744 
        2.38689         70.1892         6.64523 
        2.39303         69.7938         6.60338 
        2.39916         69.4604         6.56194 
        2.40529         69.2836         6.52086 
        2.41143         68.7535          6.4801 
        2.41757         68.5054         6.43967 
         2.4237         68.2214         6.39966 
        2.42983         67.7617         6.35999 
        2.43598         67.4227         6.32056 
        2.44211         67.1705         6.28152 
        2.44823         66.7961          6.2429 
        2.45437          66.305         6.20451 
        2.46052         66.0584          6.1664 
        2.46665         65.8279         6.12868 
        2.47279         65.3952         6.09129 
        2.47892         65.1317         6.05418 
        2.48507         64.6792         6.01735 
         2.4912         64.4086          5.9809 
