# k  (h/Mpc)    Pcb(k)  (Mpc/h)^3    Pcb_linear(k)  (Mpc/h)^3
     0.00783031         7524.37         7617.89 
       0.013688         9418.29         9372.08 
       0.019231         9461.81         9447.07 
      0.0249154         8567.63         8687.63 
      0.0312784         7434.78         7478.37 
      0.0375637         6353.58         6341.79 
      0.0433917         5458.99         5513.93 
      0.0492413         4909.26         4923.28 
      0.0555754         4407.06         4491.72 
      0.0619321         4191.45         4174.19 
       0.067871         3832.82         3897.49 
      0.0738098         3530.79         3591.63 
      0.0800417         3153.55         3231.06 
      0.0862327         2821.19         2859.34 
      0.0921407         2527.87         2529.45 
      0.0982031          2236.5         2246.76 
       0.104506         2066.98         2026.65 
       0.110769         1910.45         1876.44 
       0.116806         1795.05         1777.27 
       0.122832         1722.72         1699.23 
       0.129052         1612.97         1618.31 
       0.135211         1523.84         1524.04 
       0.141259         1438.98         1415.78 
       0.147318         1336.95         1299.14 
       0.153489         1215.39         1183.97 
       0.159709         1132.32         1082.77 
       0.165845         1073.27         1003.58 
       0.171974         1006.74         945.049 
       0.178125         962.173         902.319 
       0.184229         927.285         868.671 
        0.19034         871.515         836.579 
       0.196428         853.336         801.113 
       0.202534         822.221          760.17 
       0.208729         775.281         714.476 
       0.214876         729.111         668.413 
       0.220989         700.063         625.657 
       0.227147         660.308         588.457 
        0.23329         631.954          558.27 
       0.239377         616.491         534.507 
       0.245482         577.259         514.981 
       0.251667         571.441         497.267 
       0.257832         551.775          479.59 
       0.263955         532.205         460.814 
       0.270079         511.728         440.651 
        0.27624         502.641         419.642 
       0.282372         481.182         399.156 
        0.28843         465.632         380.373 
       0.294538         443.559         363.601 
       0.300721         439.231         348.993 
        0.30691         418.974         336.406 
       0.313033         409.951         325.317 
       0.319153          395.39         314.866 
       0.325316         384.931          304.41 
        0.33145         372.679         293.777 
       0.337538          367.25         283.012 
       0.343633          354.75         272.264 
       0.349808         343.002         261.737 
       0.355968         338.111         251.918 
       0.362074         329.962         243.009 
       0.368217         320.961          234.91 
       0.374374         309.295          227.51 
       0.380519         305.115         220.635 
       0.386598         297.384          214.13 
       0.392688         294.016         207.729 
        0.39888         286.033         201.277 
       0.405048          279.43         194.913 
       0.411186         273.465         188.704 
       0.417313         268.093         182.739 
       0.423458         262.723         177.069 
       0.429607         256.872         171.737 
       0.435692         249.589         166.808 
       0.441815         247.691         162.147 
       0.447964         243.025         157.693 
       0.454126         233.508         153.395 
       0.460267         230.776         149.236 
       0.466387         227.901         145.179 
        0.47254         222.916         141.188 
       0.478662         221.525         137.332 
       0.484765         214.739         133.626 
       0.490885         211.733         130.061 
       0.497035         208.718         126.637 
       0.503198         203.514         123.371 
       0.509342         201.043         120.263 
       0.515458         198.268          117.29 
       0.521598         195.062         114.403 
       0.527764         192.131         111.588 
       0.533884          189.41         108.875 
           0.54         186.413         106.241 
       0.546137          185.15         103.674 
       0.552299         181.664         101.177 
       0.558452         178.964         98.7695 
       0.564573         175.976          96.463 
       0.570708         172.954         94.2381 
       0.576825         170.801         92.0994 
       0.582926         168.058         90.0365 
       0.589034         165.856         88.0331 
       0.595184         164.002         86.0738 
       0.601379          162.22         84.1572 
       0.607522         158.696         82.3124 
       0.613639         158.029         80.5297 
       0.619772         154.591         78.7958 
       0.625918         153.058         77.1104 
       0.632068          151.31         75.4745 
       0.638161         150.063         73.9018 
         0.6443         147.922         72.3642 
       0.650464         146.366         70.8663 
       0.656582         144.585          69.423 
       0.662703         142.568         68.0203 
       0.668861         140.569         66.6491 
       0.675024         138.989         65.3148 
       0.681124         138.041         64.0304 
       0.687237         135.588         62.7776 
       0.693381         133.811         61.5522 
       0.699536         132.773         60.3574 
       0.705665         132.872         59.1995 
       0.711789         129.665         58.0734 
       0.717957         129.214         56.9692 
        0.72409         127.345         55.9004 
       0.730186         125.321          54.866 
       0.736317         124.776         53.8526 
       0.742472         123.812         52.8614 
       0.748622         122.631         51.8965 
        0.75476         121.472          50.958 
       0.760888         119.757         50.0444 
       0.767043          118.98         49.1497 
       0.773185         117.686         48.2789 
       0.779291         116.212         47.4343 
       0.785407         115.492         46.6088 
       0.791564         114.366          45.798 
       0.797719         112.648          45.007 
       0.803834          112.16         44.2398 
       0.809972         110.626          43.488 
       0.816124         110.292         42.7521 
       0.822261          109.16         42.0353 
       0.828378         108.153         41.3373 
       0.834502         107.529         40.6547 
       0.840667         106.186         39.9832 
       0.846816         105.062         39.3289 
       0.852925         104.296         38.6935 
       0.859047         103.015         38.0709 
       0.865192          102.53         37.4601 
       0.871341         101.633         36.8624 
       0.877463         100.468         36.2805 
       0.883569         99.8103         35.7128 
       0.889708         99.1273         35.1544 
       0.895864         98.2692         34.6066 
       0.902008         97.4702         34.0717 
       0.908149          96.907         33.5486 
       0.914301         95.8831         33.0356 
       0.920448         95.2443          32.534 
       0.926574          94.521         32.0446 
       0.932687         94.2069         31.5664 
       0.938823         92.7395         31.0963 
       0.944975         92.0694         30.6347 
       0.951105         91.4713         30.1843 
       0.957225         90.3834         29.7437 
       0.963368         90.0037         29.3105 
       0.969511         89.6282          28.886 
       0.975621         89.1563         28.4723 
       0.981748          88.308         28.0656 
       0.987916         87.5083         27.6643 
        0.99406         86.9641         27.2725 
        1.00019         86.1953         26.8891 
        1.00632         85.7487         26.5134 
        1.01246          85.032         26.1445 
        1.01859         83.9196         25.7831 
        1.02471         84.1121         25.4292 
        1.03085         83.1977         25.0807 
        1.03698         82.6549         24.7395 
        1.04314          81.859         24.4032 
        1.04929         81.4088          24.074 
        1.05541         80.7205         23.7523 
        1.06154         80.4793         23.4357 
        1.06769          79.963         23.1244 
        1.07382         79.6006         22.8198 
        1.07993         79.0522         22.5214 
        1.08607         78.3669         22.2272 
        1.09222         77.9791         21.9379 
        1.09836         77.3948         21.6542 
        1.10449         76.9366         21.3758 
        1.11063         76.3675         21.1021 
        1.11677         75.9454         20.8332 
         1.1229          75.267         20.5696 
        1.12903         74.4612         20.3103 
        1.13518         74.7369         20.0552 
        1.14131         74.1625         19.8048 
        1.14745         73.3029         19.5587 
        1.15359         73.0824         19.3169 
        1.15973         72.5803          19.079 
        1.16584          72.086         18.8462 
        1.17197         71.6636         18.6171 
        1.17811         71.2941          18.391 
        1.18424         70.6724         18.1694 
        1.19038         70.2819         17.9508 
        1.19652         70.0337         17.7359 
        1.20267         69.4234         17.5245 
        1.20881         69.1032         17.3166 
        1.21495         68.5411         17.1125 
        1.22108         68.2043         16.9116 
         1.2272         67.6049         16.7145 
        1.23334         67.3531         16.5201 
        1.23949         67.0874         16.3284 
        1.24562         66.6655         16.1402 
        1.25174         66.3223         15.9553 
        1.25789         65.9934         15.7727 
        1.26402         65.5452         15.5934 
        1.27014         64.9095         15.4173 
        1.27628         64.7605         15.2434 
        1.28244         64.2286         15.0718 
        1.28858          63.971         14.9032 
        1.29471         63.7304         14.7375 
        1.30084         63.3112         14.5745 
        1.30697         62.8856         14.4138 
        1.31312          62.497         14.2552 
        1.31925         62.3391         14.0995 
        1.32537         62.0069         13.9464 
        1.33151         61.3967         13.7949 
        1.33765         61.1916         13.6458 
        1.34378         60.8125         13.4992 
        1.34992         60.4787         13.3547 
        1.35606         60.1502          13.212 
         1.3622         59.7015         13.0716 
        1.36833         59.5189         12.9336 
        1.37445         59.2529         12.7977 
        1.38059         58.7887         12.6633 
        1.38675         58.4826         12.5306 
        1.39288         58.1694         12.4002 
        1.39901         57.9852         12.2718 
        1.40515         57.6407          12.145 
         1.4113         57.3749           12.02 
        1.41742         57.1141         11.8972 
        1.42355         56.6719         11.7759 
         1.4297         56.4328          11.656 
        1.43585         56.1043         11.5377 
        1.44198         55.8566         11.4216 
        1.44809         55.6057         11.3073 
        1.45423         55.3479         11.1942 
        1.46036         55.0784         11.0828 
        1.46649         54.7436         10.9729 
        1.47263         54.3981         10.8644 
        1.47877         54.2481         10.7574 
        1.48491         54.0732         10.6517 
        1.49104          53.619         10.5476 
        1.49718         53.1778         10.4449 
        1.50333         53.0747         10.3433 
        1.50947         52.8246         10.2434 
         1.5156         52.5103         10.1449 
        1.52172         52.3307         10.0477 
        1.52787         52.1962         9.95154 
          1.534          51.838          9.8568 
        1.54013         51.5391         9.76339 
        1.54627         51.3547         9.67102 
        1.55241          50.992         9.57984 
        1.55855         50.7168         9.48997 
        1.56467         50.3249          9.4015 
         1.5708         50.3596         9.31392 
        1.57695         50.0612         9.22732 
        1.58308         49.7809         9.14202 
        1.58922         49.7503         9.05775 
        1.59535         49.4651         8.97458 
         1.6015         49.0132         8.89234 
        1.60764         48.8708         8.81117 
        1.61376         48.6303         8.73125 
        1.61989         48.2777         8.65225 
        1.62604         48.2023         8.57406 
        1.63218         48.0393         8.49689 
        1.63831         47.7536         8.42085 
        1.64444         47.4992         8.34571 
        1.65059          47.153         8.27131 
        1.65673         46.9858         8.19791 
        1.66285         46.7595          8.1256 
        1.66898         46.5182         8.05415 
        1.67512          46.286         7.98342 
        1.68127         46.0189         7.91347 
         1.6874         45.9305         7.84452 
        1.69353         45.6216         7.77643 
        1.69967         45.4224         7.70899 
        1.70581         45.3633         7.64238 
        1.71193         45.0848         7.57681 
        1.71806         44.7122         7.51188 
        1.72421         44.5954         7.44757 
        1.73035         44.3472          7.3841 
        1.73649         44.0251         7.32137 
        1.74262         43.9914         7.25943 
        1.74876           43.86         7.19817 
        1.75489         43.5528         7.13774 
        1.76101         43.3849         7.07802 
        1.76715         43.1549         7.01891 
        1.77329         42.9495          6.9604 
        1.77943          42.794         6.90254 
        1.78557         42.6095         6.84542 
        1.79171         42.3361         6.78894 
        1.79785         42.1512         6.73309 
        1.80399         42.0304         6.67788 
        1.81012         41.8469         6.62337 
        1.81625         41.4892         6.56949 
        1.82239         41.4006         6.51613 
        1.82853         41.0836         6.46339 
        1.83466         41.0275         6.41129 
        1.84078         40.6908         6.35982 
        1.84692         40.5783         6.30883 
        1.85306         40.3852         6.25834 
         1.8592         40.1801         6.20848 
        1.86533         40.0196          6.1592 
        1.87147         39.8896         6.11039 
        1.87761         39.7468          6.0621 
        1.88375         39.5088         6.01438 
        1.88988          39.462         5.96723 
        1.89601         39.1663         5.92056 
        1.90215         39.0224         5.87435 
        1.90829         38.9329         5.82866 
        1.91442         38.6804         5.78345 
        1.92056         38.5369         5.73876 
         1.9267         38.2391         5.69449 
        1.93284         38.0887         5.65067 
        1.93897         38.0005         5.60739 
        1.94509         37.7493         5.56466 
        1.95123         37.6655         5.52227 
        1.95737         37.4173         5.48029 
        1.96349         37.2717         5.43885 
        1.96964         37.1216         5.39773 
        1.97578         36.9681         5.35701 
        1.98192         36.7741          5.3168 
        1.98805         36.6435         5.27699 
        1.99419         36.3921         5.23759 
        2.00033         36.2615         5.19858 
        2.00647         36.1156         5.15997 
         2.0126         35.9556         5.12183 
        2.01874         35.8297         5.08401 
        2.02488         35.7249         5.04654 
        2.03101         35.4708         5.00952 
        2.03714         35.3282          4.9729 
        2.04328         35.1471         4.93661 
        2.04941         35.0179         4.90072 
        2.05554         34.8144         4.86521 
        2.06167          34.742            4.83 
        2.06781         34.5505         4.79514 
        2.07396         34.3913         4.76057 
        2.08009         34.2845          4.7264 
        2.08622         34.0897         4.69261 
        2.09237         33.9261         4.65908 
        2.09851         33.7568         4.62588 
        2.10464         33.6889         4.59305 
        2.11077         33.5001         4.56059 
        2.11691         33.3691         4.52836 
        2.12305         33.2039         4.49644 
        2.12918         33.1547         4.46491 
        2.13531         32.9331         4.43368 
        2.14145         32.8713         4.40268 
         2.1476          32.636         4.37194 
        2.15372         32.4715         4.34164 
        2.15985         32.3692          4.3116 
        2.16599         32.3302         4.28176 
        2.17213          32.202         4.25223 
        2.17827          31.914         4.22299 
         2.1844         31.8024         4.19406 
        2.19054         31.6578         4.16538 
        2.19666          31.552         4.13701 
         2.2028         31.4229         4.10888 
        2.20893          31.326           4.081 
        2.21508         31.1751         4.05335 
        2.22122         30.9708         4.02594 
        2.22736         30.9073         3.99885 
        2.23349         30.7726         3.97201 
        2.23962          30.603         3.94541 
        2.24577         30.4562         3.91902 
         2.2519          30.364         3.89292 
        2.25802         30.2252         3.86709 
        2.26417         30.1258         3.84143 
        2.27031         30.0311         3.81598 
        2.27644         29.8155         3.79083 
        2.28257         29.7218         3.76591 
        2.28872         29.5769         3.74117 
        2.29486         29.5224         3.71665 
        2.30099         29.3781         3.69241 
        2.30712         29.2652         3.66837 
        2.31326         29.1831         3.64451 
         2.3194         29.0298         3.62087 
        2.32553         28.8575         3.59748 
        2.33166         28.7375         3.57431 
         2.3378         28.6229         3.55131 
        2.34394         28.4673         3.52851 
        2.35007         28.3651         3.50594 
        2.35619         28.3126          3.4836 
        2.36233         28.2201         3.46139 
        2.36848         28.0034         3.43934 
        2.37462         27.9304         3.41752 
        2.38075         27.8142         3.39592 
        2.38689         27.7452         3.37448 
        2.39303         27.5711         3.35323 
        2.39916         27.4207         3.33219 
        2.40529         27.2916         3.31133 
        2.41143         27.2208         3.29063 
        2.41757         27.1255          3.2701 
         2.4237         26.9797         3.24978 
        2.42983         26.8884         3.22964 
        2.43598         26.7699         3.20961 
        2.44211         26.6542         3.18979 
        2.44823         26.5079         3.17018 
        2.45437         26.4533         3.15068 
        2.46052         26.3221         3.13133 
        2.46665         26.2533         3.11217 
        2.47279         26.1281         3.09319 
        2.47892          25.988         3.07434 
        2.48507         25.8952         3.05564 
         2.4912         25.8221         3.03713 
