# k  (h/Mpc)    P(k)  (Mpc/h)^3    P_linear(k)  (Mpc/h)^3
     0.00783031         3313.56         3363.86 
       0.013688          4128.1         4134.96 
       0.019231         4159.34         4165.89 
      0.0249154         3787.78         3829.71 
      0.0312784         3281.87          3295.9 
      0.0375637         2798.17         2794.57 
      0.0433917         2414.98         2429.51 
      0.0492413         2166.39         2169.09 
      0.0555754         1956.42         1978.83 
      0.0619321         1846.61         1838.85 
       0.067871         1700.67         1716.89 
      0.0738098         1566.36         1582.11 
      0.0800417         1402.62         1423.25 
      0.0862327          1250.2         1259.48 
      0.0921407          1113.6         1114.15 
      0.0982031         985.619         989.621 
       0.104506         903.198         892.662 
       0.110769         835.029         826.489 
       0.116806         784.524         782.803 
       0.122832         753.807         748.425 
       0.129052         709.978         712.777 
       0.135211          669.32         671.254 
       0.141259         628.243         623.566 
       0.147318         581.296         572.194 
       0.153489         528.269         521.465 
       0.159709         487.761          476.89 
       0.165845         458.971          442.01 
       0.171974         428.874         416.231 
       0.178125         410.531          397.41 
       0.184229         396.146         382.589 
        0.19034         374.344         368.454 
       0.196428         364.116         352.833 
       0.202534         350.105           334.8 
       0.208729         328.535         314.674 
       0.214876         306.972         294.387 
       0.220989         292.946         275.555 
       0.227147         274.071         259.172 
        0.23329         261.407         245.876 
       0.239377         253.151          235.41 
       0.245482         239.202          226.81 
       0.251667         235.148         219.009 
       0.257832         227.223         211.223 
       0.263955         218.554         202.953 
       0.270079          209.83         194.073 
        0.27624         203.919          184.82 
       0.282372         194.992         175.797 
        0.28843         186.304         167.524 
       0.294538         178.286         160.138 
       0.300721         174.573         153.704 
        0.30691         166.715          148.16 
       0.313033         162.147         143.276 
       0.319153         155.055         138.674 
       0.325316         152.265         134.068 
        0.33145         146.625         129.385 
       0.337538         143.411         124.644 
       0.343633         138.186          119.91 
       0.349808         133.763         115.274 
       0.355968         130.274         110.949 
       0.362074         126.124         107.026 
       0.368217         122.486         103.459 
       0.374374         118.883           100.2 
       0.380519         116.116         97.1718 
       0.386598         113.012         94.3069 
       0.392688         110.863         91.4879 
        0.39888         107.767         88.6461 
       0.405048         105.147         85.8432 
       0.411186         102.675         83.1088 
       0.417313          99.634         80.4814 
       0.423458         97.2318         77.9842 
       0.429607         94.7159         75.6359 
       0.435692         91.6051         73.4653 
       0.441815         90.6071         71.4123 
       0.447964         89.0647         69.4506 
       0.454126         85.2329          67.558 
       0.460267         84.0685         65.7261 
       0.466387         82.1225         63.9395 
        0.47254         80.7433         62.1818 
       0.478662         79.5022         60.4834 
       0.484765         77.1934          58.851 
       0.490885         75.6313          57.281 
       0.497035         74.6438         55.7732 
       0.503198         72.6046         54.3347 
       0.509342         70.8617         52.9658 
       0.515458         69.6678         51.6564 
       0.521598         68.6397         50.3849 
       0.527764         67.3914         49.1452 
       0.533884         66.2592         47.9502 
           0.54         64.8827         46.7903 
       0.546137         64.0754         45.6598 
       0.552299         63.0971           44.56 
       0.558452          61.305         43.4997 
       0.564573         60.2618         42.4838 
       0.570708         59.4948          41.504 
       0.576825         58.3105         40.5621 
       0.582926         57.1446         39.6535 
       0.589034         55.8615         38.7713 
       0.595184         55.1873         37.9083 
       0.601379         54.3753         37.0642 
       0.607522         53.1307         36.2517 
       0.613639         52.8763         35.4666 
       0.619772         51.5567          34.703 
       0.625918         51.2274         33.9607 
       0.632068         50.4668         33.2402 
       0.638161         49.6092         32.5475 
         0.6443         48.7634         31.8703 
       0.650464         48.0072         31.2107 
       0.656582         47.6111          30.575 
       0.662703         46.6544         29.9572 
       0.668861          45.991         29.3533 
       0.675024         45.3048         28.7657 
       0.681124         44.5371            28.2 
       0.687237         43.7925         27.6482 
       0.693381         43.4641         27.1086 
       0.699536         42.5227         26.5824 
       0.705665         42.6327         26.0724 
       0.711789         41.5335         25.5764 
       0.717957         41.0938         25.0901 
        0.72409         40.5345         24.6194 
       0.730186         39.9105         24.1638 
       0.736317         39.6376         23.7175 
       0.742472         38.9526          23.281 
       0.748622         38.6294          22.856 
        0.75476         38.0725         22.4427 
       0.760888         37.4928         22.0403 
       0.767043         37.0906         21.6463 
       0.773185         36.5334         21.2628 
       0.779291         36.3779         20.8908 
       0.785407         35.9864         20.5273 
       0.791564         35.3593         20.1701 
       0.797719         34.6713         19.8218 
       0.803834         34.6281         19.4839 
       0.809972         34.1984         19.1528 
       0.816124         33.5386         18.8287 
       0.822261         33.3168          18.513 
       0.828378         33.0521         18.2056 
       0.834502         32.6698          17.905 
       0.840667         32.3208         17.6092 
       0.846816         31.8068         17.3211 
       0.852925         31.5358         17.0412 
       0.859047          31.156          16.767 
       0.865192         30.8851          16.498 
       0.871341         30.7307         16.2348 
       0.877463          30.115         15.9785 
       0.883569         29.8458         15.7285 
       0.889708         29.5529         15.4825 
       0.895864         29.2951         15.2413 
       0.902008         29.0583         15.0057 
       0.908149         28.7618         14.7753 
       0.914301         28.6559         14.5494 
       0.920448         28.1134         14.3285 
       0.926574         27.9244         14.1129 
       0.932687          27.631         13.9023 
       0.938823         27.2605         13.6953 
       0.944975         27.0876          13.492 
       0.951105         26.8446         13.2936 
       0.957225          26.531         13.0996 
       0.963368         26.4131         12.9088 
       0.969511         26.1706         12.7219 
       0.975621         25.9627         12.5396 
       0.981748         25.5928         12.3605 
       0.987916         25.4724         12.1838 
        0.99406         25.1993         12.0112 
        1.00019         24.8958         11.8424 
        1.00632         24.7762         11.6769 
        1.01246         24.6011         11.5144 
        1.01859         24.2361         11.3553 
        1.02471         24.1983         11.1994 
        1.03085         23.9673         11.0459 
        1.03698         23.5962         10.8956 
        1.04314         23.4551         10.7475 
        1.04929         23.2356         10.6026 
        1.05541         23.0012         10.4609 
        1.06154         22.8974         10.3214 
        1.06769         22.7464         10.1843 
        1.07382         22.5049         10.0502 
        1.07993         22.4082         9.91879 
        1.08607          22.112          9.7892 
        1.09222         22.0161          9.6618 
        1.09836         21.7533         9.53684 
        1.10449         21.6402         9.41424 
        1.11063         21.3795         9.29367 
        1.11677         21.3157         9.17527 
         1.1229         21.2087         9.05915 
        1.12903         20.9246         8.94495 
        1.13518         20.7357         8.83263 
        1.14131         20.6899         8.72232 
        1.14745         20.5147         8.61397 
        1.15359         20.4092         8.50744 
        1.15973         20.1886         8.40269 
        1.16584         19.9507         8.30017 
        1.17197         19.9657         8.19923 
        1.17811         19.7126         8.09967 
        1.18424         19.5537         8.00206 
        1.19038         19.4999         7.90579 
        1.19652         19.3484         7.81114 
        1.20267         19.1947         7.71805 
        1.20881         19.0798          7.6265 
        1.21495         18.9542         7.53659 
        1.22108         18.7909         7.44814 
         1.2272         18.6125         7.36133 
        1.23334         18.5249         7.27571 
        1.23949         18.3538         7.19126 
        1.24562         18.3012         7.10839 
        1.25174          18.187         7.02696 
        1.25789         18.0465         6.94656 
        1.26402         17.9723         6.86757 
        1.27014         17.7849         6.79001 
        1.27628         17.6174         6.71342 
        1.28244         17.5703         6.63787 
        1.28858         17.5079          6.5636 
        1.29471         17.3384         6.49063 
        1.30084         17.2017         6.41884 
        1.30697         17.1056         6.34804 
        1.31312         16.9444         6.27821 
        1.31925         16.8455         6.20965 
        1.32537         16.8016         6.14219 
        1.33151         16.6508         6.07549 
        1.33765         16.5791         6.00983 
        1.34378          16.487         5.94527 
        1.34992         16.2931         5.88162 
        1.35606         16.2715         5.81877 
         1.3622          16.168         5.75694 
        1.36833         16.0341         5.69617 
        1.37445         15.9936         5.63631 
        1.38059         15.8795         5.57713 
        1.38675          15.711         5.51866 
        1.39288         15.6813         5.46126 
        1.39901         15.5506         5.40471 
        1.40515         15.4885         5.34883 
         1.4113         15.3771         5.29378 
        1.41742         15.2646          5.2397 
        1.42355         15.2058         5.18629 
         1.4297         15.1318         5.13346 
        1.43585         15.0794          5.0814 
        1.44198         14.9361         5.03025 
        1.44809         14.8686         4.97991 
        1.45423          14.781         4.93008 
        1.46036         14.7128         4.88102 
        1.46649         14.6388         4.83261 
        1.47263          14.514         4.78483 
        1.47877          14.445         4.73771 
        1.48491         14.3844         4.69116 
        1.49104         14.3259         4.64533 
        1.49718         14.2111         4.60008 
        1.50333         14.1578         4.55537 
        1.50947         14.0841         4.51134 
         1.5156         13.9665         4.46796 
        1.52172         13.9043         4.42515 
        1.52787         13.8404         4.38281 
          1.534         13.7459         4.34109 
        1.54013          13.651         4.29995 
        1.54627         13.5867         4.25927 
        1.55241         13.5263         4.21911 
        1.55855         13.4558         4.17953 
        1.56467         13.3799         4.14057 
         1.5708         13.3615         4.10199 
        1.57695         13.2375         4.06385 
        1.58308         13.1966         4.02629 
        1.58922         13.1269         3.98917 
        1.59535         13.0584         3.95254 
         1.6015         12.9687         3.91632 
        1.60764         12.9103         3.88058 
        1.61376         12.8747         3.84538 
        1.61989         12.7586         3.81059 
        1.62604         12.7514         3.77615 
        1.63218         12.6639         3.74216 
        1.63831         12.6219         3.70867 
        1.64444         12.5136         3.67558 
        1.65059         12.4578         3.64282 
        1.65673         12.4374         3.61049 
        1.66285         12.3142         3.57864 
        1.66898         12.3012         3.54717 
        1.67512         12.2377         3.51602 
        1.68127         12.1677         3.48521 
         1.6874         12.1078         3.45485 
        1.69353         12.0446         3.42486 
        1.69967         11.9872         3.39516 
        1.70581         11.9347         3.36582 
        1.71193          11.862         3.33695 
        1.71806         11.8343         3.30835 
        1.72421         11.7475         3.28003 
        1.73035         11.7161         3.25207 
        1.73649         11.6619         3.22445 
        1.74262         11.6239         3.19717 
        1.74876         11.5668         3.17019 
        1.75489         11.5092         3.14357 
        1.76101         11.4235         3.11727 
        1.76715         11.4259         3.09124 
        1.77329         11.3302         3.06547 
        1.77943          11.277         3.03999 
        1.78557         11.2505         3.01483 
        1.79171         11.2127         2.98996 
        1.79785         11.1229         2.96536 
        1.80399         11.0863         2.94104 
        1.81012         11.0494         2.91704 
        1.81625         10.9819         2.89331 
        1.82239         10.9423         2.86981 
        1.82853          10.865         2.84658 
        1.83466         10.8314         2.82363 
        1.84078         10.7572         2.80096 
        1.84692         10.7512         2.77851 
        1.85306         10.6903         2.75627 
         1.8592         10.6403         2.73431 
        1.86533         10.6074         2.71261 
        1.87147         10.5576         2.69111 
        1.87761         10.5219         2.66984 
        1.88375         10.4392         2.64883 
        1.88988         10.4376         2.62806 
        1.89601         10.3818         2.60751 
        1.90215         10.3235         2.58716 
        1.90829         10.2838         2.56703 
        1.91442         10.2404         2.54712 
        1.92056         10.2074         2.52744 
         1.9267           10.16         2.50794 
        1.93284         10.1036         2.48864 
        1.93897         10.0512         2.46958 
        1.94509           10.02         2.45077 
        1.95123         9.98637         2.43209 
        1.95737          9.9457         2.41361 
        1.96349         9.90152         2.39536 
        1.96964         9.85008         2.37724 
        1.97578         9.81558         2.35931 
        1.98192         9.76368          2.3416 
        1.98805         9.74105         2.32407 
        1.99419         9.69251         2.30672 
        2.00033         9.66444         2.28954 
        2.00647         9.62435         2.27253 
         2.0126         9.56282         2.25573 
        2.01874         9.53604         2.23908 
        2.02488         9.47997         2.22258 
        2.03101         9.46887         2.20627 
        2.03714         9.42117         2.19015 
        2.04328         9.38673         2.17416 
        2.04941          9.3329         2.15835 
        2.05554         9.31816         2.14271 
        2.06167         9.26355         2.12721 
        2.06781         9.24871         2.11185 
        2.07396         9.21431         2.09663 
        2.08009         9.17016         2.08158 
        2.08622         9.10983          2.0667 
        2.09237         9.10638         2.05193 
        2.09851         9.07402         2.03731 
        2.10464         9.02273         2.02285 
        2.11077         8.97593         2.00855 
        2.11691         8.94088         1.99436 
        2.12305         8.91743         1.98031 
        2.12918         8.89077         1.96642 
        2.13531         8.85202         1.95267 
        2.14145         8.82032         1.93901 
         2.1476         8.78367         1.92547 
        2.15372           8.752         1.91213 
        2.15985         8.72757          1.8989 
        2.16599         8.68892         1.88576 
        2.17213         8.66413         1.87275 
        2.17827          8.6294         1.85987 
         2.1844         8.59269         1.84713 
        2.19054         8.54004          1.8345 
        2.19666         8.53005         1.82201 
         2.2028         8.49307         1.80962 
        2.20893         8.47643         1.79734 
        2.21508         8.42577         1.78516 
        2.22122         8.38778         1.77309 
        2.22736         8.36917         1.76116 
        2.23349         8.32375         1.74934 
        2.23962         8.31455         1.73762 
        2.24577         8.26942           1.726 
         2.2519         8.24989          1.7145 
        2.25802         8.21288         1.70313 
        2.26417         8.18393         1.69183 
        2.27031         8.14954         1.68062 
        2.27644          8.1224         1.66954 
        2.28257          8.1008         1.65857 
        2.28872         8.06065         1.64767 
        2.29486         8.03768         1.63687 
        2.30099          8.0288          1.6262 
        2.30712         7.99296         1.61561 
        2.31326         7.94832          1.6051 
         2.3194         7.91581         1.59469 
        2.32553         7.90411         1.58439 
        2.33166         7.86404         1.57419 
         2.3378         7.84166         1.56406 
        2.34394         7.81402         1.55401 
        2.35007         7.77729         1.54407 
        2.35619          7.7483         1.53423 
        2.36233         7.71918         1.52445 
        2.36848         7.70822         1.51474 
        2.37462          7.6782         1.50513 
        2.38075         7.64051         1.49562 
        2.38689         7.61871         1.48618 
        2.39303         7.58923         1.47682 
        2.39916         7.56946         1.46755 
        2.40529         7.54885         1.45836 
        2.41143         7.51277         1.44925 
        2.41757         7.50649          1.4402 
         2.4237         7.46866         1.43126 
        2.42983         7.44249         1.42239 
        2.43598         7.43079         1.41357 
        2.44211          7.3914         1.40484 
        2.44823         7.37399          1.3962 
        2.45437         7.35202         1.38761 
        2.46052         7.30812         1.37909 
        2.46665         7.29211         1.37065 
        2.47279          7.2636         1.36229 
        2.47892         7.23378         1.35399 
        2.48507         7.21261         1.34576 
         2.4912         7.19009          1.3376 
