# k  (h/Mpc)    Pcb(k)  (Mpc/h)^3    Pcb_linear(k)  (Mpc/h)^3
     0.00783031         15278.2         15499.9 
       0.013688         19231.5         19064.1 
       0.019231         19241.8         19212.2 
      0.0249154         17290.1         17664.8 
      0.0312784         15025.7         15204.3 
      0.0375637         12880.4         12892.5 
      0.0433917           11000         11208.9 
      0.0492413         9924.24         10007.8 
      0.0555754         8833.42         9130.21 
      0.0619321         8476.03         8484.56 
       0.067871         7679.39         7921.96 
      0.0738098         7079.24         7300.17 
      0.0800417         6302.76          6567.2 
      0.0862327         5667.15          5811.6 
      0.0921407         5124.07         5141.05 
      0.0982031         4541.38         4566.45 
       0.104506         4238.75         4119.07 
       0.110769         3918.76         3813.74 
       0.116806         3694.78         3612.17 
       0.122832         3530.29         3453.55 
       0.129052         3283.94         3289.06 
       0.135211         3109.13         3097.46 
       0.141259         2959.83         2877.42 
       0.147318         2769.17         2640.37 
       0.153489         2522.84         2406.29 
       0.159709          2373.2          2200.6 
       0.165845         2274.63         2039.65 
       0.171974         2148.26          1920.7 
       0.178125         2047.11         1833.85 
       0.184229         1962.95         1765.46 
        0.19034         1856.49         1700.24 
       0.196428         1818.73         1628.15 
       0.202534         1748.22         1544.94 
       0.208729         1662.91         1452.07 
       0.214876         1587.96         1358.46 
       0.220989         1529.89         1271.56 
       0.227147         1462.31         1195.96 
        0.23329         1403.56          1134.6 
       0.239377         1379.86         1086.31 
       0.245482         1293.71         1046.62 
       0.251667         1286.75         1010.62 
       0.257832         1236.26         974.695 
       0.263955         1195.36         936.535 
       0.270079          1152.9         895.557 
        0.27624         1139.26         852.859 
       0.282372         1091.29         811.224 
        0.28843         1080.46         773.049 
       0.294538          1025.9         738.962 
       0.300721         1020.34         709.273 
        0.30691         979.041         683.692 
       0.313033          960.04         661.157 
       0.319153         941.033         639.916 
       0.325316         910.931         618.665 
        0.33145         889.351         597.056 
       0.337538         874.353         575.178 
       0.343633         853.043         553.333 
       0.349808         823.441         531.939 
       0.355968          817.94         511.983 
       0.362074         808.729         493.876 
       0.368217         783.932         477.417 
       0.374374         752.878         462.378 
       0.380519         753.217         448.405 
       0.386598         732.226         435.186 
       0.392688         729.794         422.177 
        0.39888         708.127         409.063 
       0.405048         697.745          396.13 
       0.411186          687.82         383.511 
       0.417313         673.557         371.388 
       0.423458         661.427         359.863 
       0.429607          652.42         349.028 
       0.435692         637.841          339.01 
       0.441815         632.456         329.537 
       0.447964         619.311         320.484 
       0.454126         611.313         311.751 
       0.460267         597.452         303.298 
       0.466387         590.713         295.053 
        0.47254         584.016         286.942 
       0.478662         579.978         279.105 
       0.484765         561.548         271.572 
       0.490885         557.652         264.327 
       0.497035         546.566          257.37 
       0.503198         542.098         250.731 
       0.509342         537.221         244.415 
       0.515458         533.072         238.372 
       0.521598         519.604         232.504 
       0.527764         510.626         226.784 
       0.533884         508.633          221.27 
           0.54         502.345         215.917 
       0.546137         499.378           210.7 
       0.552299         491.004         205.626 
       0.558452          488.16         200.733 
       0.564573         481.532         196.045 
       0.570708         475.143         191.523 
       0.576825         463.037         187.177 
       0.582926         463.507         182.984 
       0.589034         459.344         178.913 
       0.595184         455.349         174.931 
       0.601379         448.453         171.036 
       0.607522          442.27         167.286 
       0.613639         441.488         163.663 
       0.619772         431.667         160.139 
       0.625918         430.052         156.714 
       0.632068         423.508         153.389 
       0.638161         421.946         150.193 
         0.6443         414.711         147.068 
       0.650464         412.089         144.024 
       0.656582         409.075         141.091 
       0.662703         407.707          138.24 
       0.668861         400.647         135.453 
       0.675024         397.295         132.741 
       0.681124         394.246         130.131 
       0.687237         390.723         127.585 
       0.693381          385.34         125.095 
       0.699536         380.445         122.666 
       0.705665         378.689         120.313 
       0.711789         376.786         118.024 
       0.717957         373.482          115.78 
        0.72409         370.854         113.608 
       0.730186          366.02         111.506 
       0.736317         362.938         109.446 
       0.742472         361.153         107.432 
       0.748622         357.261         105.471 
        0.75476         352.976         103.564 
       0.760888         349.407         101.707 
       0.767043         349.927         99.8885 
       0.773185         345.774         98.1187 
       0.779291         341.042         96.4022 
       0.785407         339.936         94.7246 
       0.791564         335.748         93.0767 
       0.797719         333.443         91.4691 
       0.803834         330.249           89.91 
       0.809972         329.496         88.3819 
       0.816124         328.657         86.8864 
       0.822261         324.226         85.4297 
       0.828378         321.996         84.0111 
       0.834502         319.137         82.6238 
       0.840667         316.447         81.2591 
       0.846816          314.95         79.9293 
       0.852925         312.799         78.6379 
       0.859047         310.729         77.3726 
       0.865192         307.012         76.1313 
       0.871341         304.739         74.9165 
       0.877463          303.85          73.734 
       0.883569         301.862         72.5802 
       0.889708         298.883         71.4454 
       0.895864          296.86         70.3321 
       0.902008          294.77         69.2451 
       0.908149         292.517         68.1818 
       0.914301         289.548         67.1393 
       0.920448         287.979         66.1198 
       0.926574         284.661         65.1252 
       0.932687          284.94         64.1533 
       0.938823         281.746         63.1979 
       0.944975         281.047         62.2599 
       0.951105         278.666         61.3445 
       0.957225         276.798         60.4491 
       0.963368         273.299         59.5687 
       0.969511         272.355          58.706 
       0.975621         270.095         57.8651 
       0.981748          269.57         57.0386 
       0.987916         267.659         56.2231 
        0.99406         263.845         55.4267 
        1.00019         263.393         54.6475 
        1.00632         261.937         53.8841 
        1.01246         259.705         53.1342 
        1.01859         260.183         52.3999 
        1.02471         255.883         51.6805 
        1.03085         254.435         50.9722 
        1.03698         253.492         50.2788 
        1.04314         250.919         49.5954 
        1.04929         249.275         48.9264 
        1.05541         249.805         48.2725 
        1.06154         245.777         47.6291 
        1.06769         245.382         46.9964 
        1.07382         243.564         46.3774 
        1.07993         241.912          45.771 
        1.08607         241.283          45.173 
        1.09222          239.21         44.5851 
        1.09836         237.526         44.0085 
        1.10449         235.173         43.4427 
        1.11063         233.283         42.8864 
        1.11677         232.966           42.34 
         1.1229           231.1         41.8041 
        1.12903         229.941         41.2772 
        1.13518         228.316         40.7589 
        1.14131         226.546         40.2498 
        1.14745         226.394         39.7498 
        1.15359         224.323         39.2582 
        1.15973         222.681         38.7748 
        1.16584          221.16         38.3018 
        1.17197         221.172          37.836 
        1.17811         218.422         37.3766 
        1.18424         217.286         36.9261 
        1.19038         216.708         36.4819 
        1.19652         214.873         36.0451 
        1.20267         214.414         35.6155 
        1.20881         212.484         35.1931 
        1.21495         211.239         34.7782 
        1.22108          209.96           34.37 
         1.2272         208.516         33.9694 
        1.23334         207.736         33.5743 
        1.23949         206.083         33.1846 
        1.24562         205.239         32.8022 
        1.25174         203.806         32.4264 
        1.25789         202.367         32.0554 
        1.26402         200.682         31.6909 
        1.27014         199.522          31.333 
        1.27628         198.663         30.9796 
        1.28244         198.548          30.631 
        1.28858         196.251         30.2882 
        1.29471         194.905         29.9515 
        1.30084         194.167         29.6202 
        1.30697         192.648         29.2935 
        1.31312         191.171         28.9713 
        1.31925         190.527         28.6549 
        1.32537         189.816         28.3436 
        1.33151         187.905         28.0358 
        1.33765         186.787         27.7328 
        1.34378         186.163         27.4349 
        1.34992         185.198         27.1412 
        1.35606          185.14         26.8511 
         1.3622         183.182         26.5659 
        1.36833          181.45         26.2854 
        1.37445         180.859         26.0092 
        1.38059          179.38         25.7361 
        1.38675          178.83         25.4663 
        1.39288         177.787         25.2014 
        1.39901         177.403         24.9404 
        1.40515         175.467         24.6826 
         1.4113         174.683         24.4285 
        1.41742         173.422          24.179 
        1.42355         172.608         23.9325 
         1.4297         171.332         23.6888 
        1.43585         170.613         23.4485 
        1.44198          169.69         23.2125 
        1.44809         168.925         22.9802 
        1.45423         168.001         22.7502 
        1.46036         166.805         22.5238 
        1.46649         165.683         22.3005 
        1.47263          164.68           22.08 
        1.47877         163.757         21.8625 
        1.48491          162.26         21.6477 
        1.49104         162.174         21.4362 
        1.49718         160.552         21.2274 
        1.50333         159.939         21.0211 
        1.50947         159.158         20.8179 
         1.5156         158.053         20.6177 
        1.52172         157.344         20.4202 
        1.52787         155.925         20.2248 
          1.534         155.579         20.0323 
        1.54013         154.546         19.8424 
        1.54627         153.656         19.6547 
        1.55241         152.645         19.4694 
        1.55855         151.783         19.2867 
        1.56467         150.739          19.107 
         1.5708         149.986         18.9289 
        1.57695         149.407          18.753 
        1.58308         148.593         18.5796 
        1.58922         147.802         18.4083 
        1.59535         146.591         18.2393 
         1.6015         146.205         18.0722 
        1.60764         145.271         17.9072 
        1.61376         144.328         17.7448 
        1.61989         143.549         17.5842 
        1.62604         142.497         17.4253 
        1.63218         142.142         17.2685 
        1.63831          141.05         17.1139 
        1.64444          140.47         16.9612 
        1.65059         139.639           16.81 
        1.65673         138.522         16.6609 
        1.66285         138.139         16.5139 
        1.66898         137.069         16.3687 
        1.67512         136.881         16.2249 
        1.68127         135.599         16.0828 
         1.6874         134.657         15.9426 
        1.69353         134.343         15.8043 
        1.69967         133.425         15.6672 
        1.70581           132.7         15.5318 
        1.71193         131.895         15.3986 
        1.71806         131.346         15.2666 
        1.72421         130.532         15.1359 
        1.73035          130.32         15.0069 
        1.73649         129.328         14.8794 
        1.74262         128.388         14.7536 
        1.74876         127.911         14.6291 
        1.75489         126.992         14.5062 
        1.76101         126.136         14.3849 
        1.76715         125.741         14.2647 
        1.77329         125.322         14.1458 
        1.77943          124.27         14.0282 
        1.78557         123.822         13.9122 
        1.79171         122.968         13.7974 
        1.79785          122.26         13.6839 
        1.80399         121.533         13.5717 
        1.81012         120.994         13.4609 
        1.81625         120.409         13.3514 
        1.82239         119.909         13.2429 
        1.82853         119.092         13.1357 
        1.83466         118.337         13.0299 
        1.84078         117.895         12.9252 
        1.84692          116.85         12.8216 
        1.85306         116.688          12.719 
         1.8592         115.849         12.6177 
        1.86533         114.979         12.5175 
        1.87147         114.457         12.4183 
        1.87761         113.779         12.3202 
        1.88375          113.03         12.2232 
        1.88988          112.59         12.1274 
        1.89601         111.889         12.0325 
        1.90215         111.345         11.9386 
        1.90829         110.805         11.8458 
        1.91442          110.22         11.7539 
        1.92056         109.472          11.663 
         1.9267         109.173         11.5731 
        1.93284         108.514          11.484 
        1.93897           107.8         11.3961 
        1.94509         107.369         11.3092 
        1.95123          106.74         11.2231 
        1.95737         106.244         11.1378 
        1.96349         105.644         11.0535 
        1.96964         104.705           10.97 
        1.97578           104.2         10.8872 
        1.98192          104.01         10.8055 
        1.98805         103.183         10.7246 
        1.99419         102.867         10.6445 
        2.00033         102.101         10.5652 
        2.00647         101.788         10.4868 
         2.0126         101.003         10.4092 
        2.01874         100.432         10.3324 
        2.02488         100.074         10.2562 
        2.03101         99.3204          10.181 
        2.03714         98.7634         10.1066 
        2.04328         98.3842         10.0328 
        2.04941         97.8337         9.95988 
        2.05554         97.2165         9.88771 
        2.06167         96.8903         9.81615 
        2.06781         96.1705          9.7453 
        2.07396         95.7754         9.67505 
        2.08009         95.3704         9.60561 
        2.08622         94.7108         9.53693 
        2.09237         94.2065         9.46879 
        2.09851         93.7835         9.40131 
        2.10464         93.3129          9.3346 
        2.11077         92.8562         9.26861 
        2.11691         92.4582         9.20312 
        2.12305         91.7053         9.13826 
        2.12918         91.1806         9.07418 
        2.13531         90.8792         9.01071 
        2.14145         90.1173          8.9477 
         2.1476         89.6574         8.88521 
        2.15372         89.3866         8.82364 
        2.15985         88.9533         8.76259 
        2.16599         88.3262         8.70195 
        2.17213         87.9318         8.64194 
        2.17827         87.5052         8.58252 
         2.1844            86.9          8.5237 
        2.19054         86.6636         8.46542 
        2.19666         86.1867         8.40777 
         2.2028         85.6971          8.3506 
        2.20893         85.2631         8.29394 
        2.21508         84.7678         8.23774 
        2.22122         84.3249         8.18204 
        2.22736         83.9363         8.12698 
        2.23349         83.5498         8.07244 
        2.23962         83.0907         8.01837 
        2.24577         82.7144         7.96475 
         2.2519         82.3484         7.91169 
        2.25802         81.7287          7.8592 
        2.26417          81.364         7.80705 
        2.27031         80.9729         7.75532 
        2.27644         80.4516         7.70421 
        2.28257         79.9909         7.65357 
        2.28872         79.7675         7.60328 
        2.29486         79.1586         7.55346 
        2.30099         78.7214         7.50419 
        2.30712         78.4796         7.45534 
        2.31326         78.0249         7.40684 
         2.3194         77.5771          7.3588 
        2.32553          77.277         7.31127 
        2.33166         76.8665         7.26418 
         2.3378         76.3072         7.21744 
        2.34394         75.9785          7.1711 
        2.35007         75.6233         7.12523 
        2.35619         75.2949         7.07982 
        2.36233         74.8207         7.03469 
        2.36848         74.4294         6.98987 
        2.37462         73.9657         6.94553 
        2.38075         73.7402         6.90162 
        2.38689         73.2759         6.85805 
        2.39303          72.831         6.81487 
        2.39916         72.5384          6.7721 
        2.40529         72.3116         6.72971 
        2.41143         71.7373         6.68764 
        2.41757         71.5138         6.64592 
         2.4237         71.1926         6.60462 
        2.42983         70.7132         6.56369 
        2.43598         70.3501         6.52299 
        2.44211         70.1416          6.4827 
        2.44823         69.7052         6.44285 
        2.45437         69.1895         6.40322 
        2.46052         68.9231         6.36389 
        2.46665         68.6951         6.32496 
        2.47279         68.2417         6.28637 
        2.47892         67.9529         6.24808 
        2.48507         67.5018         6.21007 
         2.4912         67.2177         6.17245 
