# k  (h/Mpc)    Pcb(k)  (Mpc/h)^3    Pcb_linear(k)  (Mpc/h)^3
     0.00783031         4179.06          4226.2 
       0.013688         5212.83         5200.36 
       0.019231            5249         5242.91 
      0.0249154          4773.9         4822.07 
      0.0312784            4138         4151.23 
      0.0375637         3530.04          3520.5 
      0.0433917          3043.5         3061.04 
      0.0492413         2731.82         2733.23 
      0.0555754         2463.74          2493.7 
      0.0619321         2329.75         2317.45 
       0.067871         2142.08         2163.86 
      0.0738098         1972.95         1994.07 
      0.0800417         1765.63          1793.9 
      0.0862327         1575.09         1587.53 
      0.0921407         1404.79         1404.38 
      0.0982031         1243.07         1247.43 
       0.104506         1141.43         1125.23 
       0.110769          1055.2         1041.83 
       0.116806          991.15         986.776 
       0.122832         952.305          943.45 
       0.129052         895.661         898.521 
       0.135211         844.772         846.184 
       0.141259         794.035         786.074 
       0.147318         735.371         721.318 
       0.153489         668.267         657.373 
       0.159709         618.306         601.183 
       0.165845         582.772         557.215 
       0.171974         544.882         524.719 
       0.178125         521.482         500.994 
       0.184229         503.144         482.312 
        0.19034         474.553         464.494 
       0.196428         462.487         444.802 
       0.202534          445.05          422.07 
       0.208729         418.007         396.699 
       0.214876         390.992         371.124 
       0.220989         373.757         347.385 
       0.227147         350.188          326.73 
        0.23329         334.307         309.969 
       0.239377         324.346         296.776 
       0.245482         305.615         285.934 
       0.251667         301.008         276.099 
       0.257832         290.959         266.284 
       0.263955          279.97         255.859 
       0.270079         268.896         244.664 
        0.27624         262.032         232.999 
       0.282372         250.682         221.625 
        0.28843         240.065         211.196 
       0.294538         229.565         201.883 
       0.300721         225.438         193.772 
        0.30691         215.177         186.784 
       0.313033         209.575         180.627 
       0.319153         200.657         174.824 
       0.325316         196.666         169.019 
        0.33145         189.563         163.115 
       0.337538          185.87         157.138 
       0.343633         179.214          151.17 
       0.349808         173.442         145.325 
       0.355968         169.402         139.873 
       0.362074         164.225         134.927 
       0.368217         159.574          130.43 
       0.374374         154.801         126.322 
       0.380519         151.433         122.504 
       0.386598         147.412         118.893 
       0.392688         144.819         115.339 
        0.39888         140.891         111.756 
       0.405048         137.497         108.223 
       0.411186         134.318         104.775 
       0.417313         130.702         101.463 
       0.423458           127.7         98.3147 
       0.429607         124.471         95.3546 
       0.435692         120.402         92.6176 
       0.441815          119.31         90.0297 
       0.447964         117.263         87.5565 
       0.454126         112.126         85.1705 
       0.460267          110.74         82.8612 
       0.466387         108.554         80.6087 
        0.47254         106.583         78.3928 
       0.478662         105.126         76.2516 
       0.484765         102.104         74.1937 
       0.490885         100.189         72.2143 
       0.497035         98.8909         70.3136 
       0.503198         96.1505            68.5 
       0.509342         94.0574         66.7743 
       0.515458         92.5932         65.1236 
       0.521598         91.2819         63.5204 
       0.527764         89.7415         61.9577 
       0.533884         88.2444         60.4512 
           0.54         86.4867         58.9887 
       0.546137         85.5496         57.5635 
       0.552299         84.2331         56.1771 
       0.558452         82.0363         54.8404 
       0.564573         80.5729         53.5597 
       0.570708         79.5862         52.3244 
       0.576825         78.2096         51.1369 
       0.582926         76.6458         49.9915 
       0.589034         75.0824         48.8791 
       0.595184         74.1803         47.7912 
       0.601379          73.202         46.7271 
       0.607522         71.4352         45.7028 
       0.613639         71.2182          44.713 
       0.619772         69.5036         43.7503 
       0.625918         68.9459         42.8145 
       0.632068         68.0166         41.9061 
       0.638161         67.0007         41.0329 
         0.6443         65.9755         40.1792 
       0.650464         65.0239         39.3475 
       0.656582         64.3505         38.5461 
       0.662703           63.06         37.7673 
       0.668861         62.3054          37.006 
       0.675024         61.4658         36.2651 
       0.681124         60.5024          35.552 
       0.687237         59.4728         34.8564 
       0.693381         58.9783          34.176 
       0.699536         57.9026         33.5126 
       0.705665         58.1415         32.8697 
       0.711789         56.5652         32.2444 
       0.717957         56.0592         31.6314 
        0.72409         55.2977         31.0379 
       0.730186         54.4091         30.4636 
       0.736317         54.1709         29.9009 
       0.742472         53.3108         29.3506 
       0.748622         52.8416         28.8148 
        0.75476         52.1725         28.2937 
       0.760888         51.3862         27.7864 
       0.767043         50.8486         27.2897 
       0.773185         50.1667         26.8062 
       0.779291         49.9299         26.3372 
       0.785407           49.42         25.8789 
       0.791564         48.6309         25.4287 
       0.797719         47.8001         24.9895 
       0.803834         47.6922         24.5635 
       0.809972         46.9571         24.1461 
       0.816124         46.2777         23.7375 
       0.822261         45.9672         23.3395 
       0.828378         45.6303          22.952 
       0.834502         45.0756         22.5729 
       0.840667         44.6572         22.2001 
       0.846816         44.0037         21.8368 
       0.852925         43.6358          21.484 
       0.859047          43.067         21.1383 
       0.865192         42.7638         20.7992 
       0.871341         42.5751         20.4673 
       0.877463         41.7053         20.1443 
       0.883569         41.3992          19.829 
       0.889708          41.111          19.519 
       0.895864         40.7172         19.2148 
       0.902008         40.3632         18.9179 
       0.908149         39.9921         18.6274 
       0.914301         39.7984         18.3426 
       0.920448         39.1785          18.064 
       0.926574         38.8926         17.7923 
       0.932687         38.5225         17.5268 
       0.938823         37.9741         17.2658 
       0.944975         37.8406         17.0095 
       0.951105         37.4723         16.7594 
       0.957225          37.011         16.5148 
       0.963368          36.934         16.2743 
       0.969511          36.593         16.0386 
       0.975621         36.2882         15.8088 
       0.981748         35.8086          15.583 
       0.987916         35.6355         15.3602 
        0.99406          35.342         15.1427 
        1.00019         34.9047         14.9298 
        1.00632          34.727         14.7212 
        1.01246         34.4946         14.5164 
        1.01859         34.0085         14.3157 
        1.02471          34.005         14.1192 
        1.03085         33.6696         13.9257 
        1.03698         33.2047         13.7362 
        1.04314         32.9574         13.5495 
        1.04929         32.7432         13.3668 
        1.05541          32.391         13.1881 
        1.06154         32.2988         13.0123 
        1.06769          32.032         12.8395 
        1.07382         31.7657         12.6704 
        1.07993         31.6459         12.5047 
        1.08607         31.2166         12.3413 
        1.09222         31.1203         12.1807 
        1.09836         30.7918         12.0232 
        1.10449         30.6068         11.8686 
        1.11063         30.2137         11.7166 
        1.11677         30.1127         11.5674 
         1.1229         29.9955          11.421 
        1.12903         29.5835          11.277 
        1.13518         29.4344         11.1354 
        1.14131         29.3582         10.9963 
        1.14745         29.0481         10.8597 
        1.15359         28.9619         10.7254 
        1.15973         28.6202         10.5934 
        1.16584         28.3482         10.4641 
        1.17197         28.3816         10.3369 
        1.17811         28.0012         10.2113 
        1.18424         27.7716         10.0883 
        1.19038         27.7313         9.96691 
        1.19652         27.5524         9.84759 
        1.20267         27.3499         9.73023 
        1.20881         27.1325         9.61481 
        1.21495         26.9529         9.50146 
        1.22108         26.7751         9.38995 
         1.2272         26.4876         9.28051 
        1.23334         26.4064         9.17257 
        1.23949          26.219          9.0661 
        1.24562         26.0988         8.96163 
        1.25174         25.9585         8.85896 
        1.25789         25.7541          8.7576 
        1.26402         25.6361         8.65802 
        1.27014         25.3597         8.56024 
        1.27628         25.2088         8.46368 
        1.28244         25.1103         8.36844 
        1.28858         25.0065          8.2748 
        1.29471         24.8163          8.1828 
        1.30084         24.6509          8.0923 
        1.30697         24.4762         8.00304 
        1.31312          24.257           7.915 
        1.31925         24.1642         7.82857 
        1.32537         24.0783         7.74353 
        1.33151         23.8706         7.65944 
        1.33765         23.8109         7.57666 
        1.34378         23.6768         7.49527 
        1.34992         23.3703         7.41502 
        1.35606         23.3185         7.33578 
         1.3622         23.1776         7.25784 
        1.36833         23.0291         7.18122 
        1.37445         23.0106         7.10575 
        1.38059         22.8294         7.03114 
        1.38675         22.5874         6.95743 
        1.39288         22.5559         6.88507 
        1.39901         22.3674         6.81377 
        1.40515         22.2862         6.74333 
         1.4113         22.1444         6.67392 
        1.41742         21.9395         6.60575 
        1.42355         21.9118         6.53841 
         1.4297         21.7825         6.47181 
        1.43585         21.7279         6.40617 
        1.44198         21.5015         6.34169 
        1.44809         21.4177         6.27823 
        1.45423          21.324          6.2154 
        1.46036         21.2472         6.15355 
        1.46649         21.0996         6.09253 
        1.47263         20.9529         6.03228 
        1.47877          20.864         5.97288 
        1.48491         20.7577         5.91419 
        1.49104         20.7126         5.85642 
        1.49718         20.5127         5.79937 
        1.50333          20.459           5.743 
        1.50947         20.3727         5.68749 
         1.5156         20.1925          5.6328 
        1.52172         20.0648         5.57883 
        1.52787         20.0562         5.52546 
          1.534         19.8912         5.47285 
        1.54013         19.7335         5.42099 
        1.54627         19.6901          5.3697 
        1.55241         19.5684         5.31908 
        1.55855         19.4612         5.26918 
        1.56467         19.3885         5.22006 
         1.5708         19.3252         5.17142 
        1.57695         19.1366         5.12334 
        1.58308          19.158         5.07598 
        1.58922         19.0144         5.02919 
        1.59535         18.9026         4.98301 
         1.6015         18.8044         4.93735 
        1.60764         18.7555         4.89228 
        1.61376         18.6434         4.84791 
        1.61989         18.4843         4.80404 
        1.62604         18.4801         4.76063 
        1.63218         18.3488         4.71778 
        1.63831         18.3111         4.67556 
        1.64444         18.1516         4.63384 
        1.65059         18.0764         4.59253 
        1.65673         18.0238         4.55178 
        1.66285         17.9001         4.51163 
        1.66898         17.8612         4.47196 
        1.67512         17.7829         4.43268 
        1.68127         17.6644         4.39385 
         1.6874         17.5748         4.35556 
        1.69353         17.5256         4.31776 
        1.69967          17.399         4.28031 
        1.70581          17.333         4.24333 
        1.71193          17.237         4.20692 
        1.71806         17.1754         4.17087 
        1.72421         17.0853         4.13516 
        1.73035          17.025         4.09992 
        1.73649         16.9335         4.06509 
        1.74262         16.9087          4.0307 
        1.74876         16.8012         3.99668 
        1.75489         16.7284         3.96313 
        1.76101         16.6407         3.92998 
        1.76715         16.6121         3.89716 
        1.77329         16.5043         3.86467 
        1.77943         16.4128         3.83254 
        1.78557         16.3665         3.80083 
        1.79171          16.317         3.76947 
        1.79785         16.1828         3.73846 
        1.80399         16.1281          3.7078 
        1.81012         16.0998         3.67754 
        1.81625          15.994         3.64762 
        1.82239         15.9646         3.61799 
        1.82853          15.826         3.58871 
        1.83466         15.7617         3.55978 
        1.84078         15.6611          3.5312 
        1.84692         15.6615         3.50289 
        1.85306         15.5687         3.47486 
         1.8592         15.5092         3.44718 
        1.86533         15.4557         3.41981 
        1.87147         15.3772         3.39271 
        1.87761          15.343          3.3659 
        1.88375         15.2175          3.3394 
        1.88988         15.1968         3.31322 
        1.89601         15.1189         3.28731 
        1.90215          15.043         3.26165 
        1.90829          15.005         3.23628 
        1.91442         14.9379         3.21118 
        1.92056         14.8787         3.18637 
         1.9267         14.8177         3.16179 
        1.93284         14.7288         3.13746 
        1.93897         14.6664         3.11343 
        1.94509         14.6135          3.0897 
        1.95123         14.5511         3.06617 
        1.95737         14.5003         3.04286 
        1.96349         14.4378         3.01985 
        1.96964         14.3729         2.99701 
        1.97578         14.3244         2.97441 
        1.98192         14.2337         2.95208 
        1.98805          14.209         2.92998 
        1.99419         14.1283          2.9081 
        2.00033          14.077         2.88644 
        2.00647         14.0364           2.865 
         2.0126         13.9404         2.84382 
        2.01874         13.8871         2.82283 
        2.02488         13.8263         2.80202 
        2.03101         13.8196         2.78147 
        2.03714         13.7578         2.76114 
        2.04328         13.6717         2.74099 
        2.04941         13.6015         2.72106 
        2.05554         13.6079         2.70134 
        2.06167         13.5245         2.68179 
        2.06781         13.4853         2.66243 
        2.07396         13.4393         2.64324 
        2.08009         13.3773         2.62427 
        2.08622         13.2926         2.60551 
        2.09237         13.2654         2.58689 
        2.09851         13.2143         2.56846 
        2.10464         13.1498         2.55023 
        2.11077         13.0945          2.5322 
        2.11691         13.0551         2.51431 
        2.12305         12.9982         2.49659 
        2.12918         12.9403         2.47908 
        2.13531         12.9129         2.46174 
        2.14145         12.8362         2.44453 
         2.1476         12.8182         2.42746 
        2.15372         12.7641         2.41064 
        2.15985         12.6924         2.39396 
        2.16599         12.6621         2.37739 
        2.17213         12.6251           2.361 
        2.17827          12.579         2.34476 
         2.1844         12.5257         2.32869 
        2.19054         12.4547         2.31277 
        2.19666         12.4377         2.29702 
         2.2028         12.3862          2.2814 
        2.20893          12.341         2.26592 
        2.21508         12.2759         2.25057 
        2.22122         12.2239         2.23535 
        2.22736          12.184         2.22031 
        2.23349         12.1241         2.20541 
        2.23962         12.0939         2.19063 
        2.24577         12.0347         2.17598 
         2.2519         12.0223         2.16149 
        2.25802         11.9682         2.14715 
        2.26417         11.9294          2.1329 
        2.27031         11.8735         2.11877 
        2.27644         11.8252         2.10481 
        2.28257          11.788         2.09097 
        2.28872         11.7412         2.07723 
        2.29486         11.7187         2.06362 
        2.30099         11.6856         2.05016 
        2.30712          11.628         2.03681 
        2.31326         11.5935         2.02356 
         2.3194         11.5285         2.01044 
        2.32553         11.5003         1.99745 
        2.33166         11.4199         1.98459 
         2.3378         11.4097         1.97182 
        2.34394         11.3673         1.95916 
        2.35007         11.3102         1.94663 
        2.35619         11.2697         1.93422 
        2.36233         11.2276         1.92189 
        2.36848         11.2187         1.90965 
        2.37462         11.1834         1.89753 
        2.38075         11.1018         1.88554 
        2.38689         11.0785         1.87363 
        2.39303         11.0461         1.86184 
        2.39916         11.0112         1.85015 
        2.40529         10.9725         1.83857 
        2.41143         10.9289         1.82708 
        2.41757         10.9044         1.81568 
         2.4237         10.8489          1.8044 
        2.42983         10.8127         1.79321 
        2.43598         10.7927         1.78209 
        2.44211           10.73         1.77109 
        2.44823         10.6915          1.7602 
        2.45437         10.6798         1.74937 
        2.46052         10.6252         1.73863 
        2.46665         10.5772         1.72799 
        2.47279         10.5421         1.71745 
        2.47892         10.5129         1.70699 
        2.48507         10.4863          1.6966 
         2.4912         10.4502         1.68633 
