# k  (h/Mpc)    Pcb(k)  (Mpc/h)^3    Pcb_linear(k)  (Mpc/h)^3
     0.00783031         1026.58         1036.56 
       0.013688         1273.78         1275.89 
       0.019231         1286.69         1286.73 
      0.0249154         1177.52         1183.76 
      0.0312784         1018.61         1019.27 
      0.0375637         866.822         864.492 
      0.0433917         750.916         751.712 
      0.0492413         672.186         671.239 
      0.0555754         609.871          612.44 
      0.0619321          571.58         569.172 
       0.067871         529.582          531.46 
      0.0738098         487.816         489.767 
      0.0800417         437.797         440.609 
      0.0862327         389.066         389.925 
      0.0921407         345.162         344.943 
      0.0982031         305.939         306.396 
       0.104506         278.283         276.383 
       0.110769          257.38           255.9 
       0.116806         242.332         242.378 
       0.122832         232.557         231.736 
       0.129052         220.167         220.701 
       0.135211         207.295         207.847 
       0.141259          193.61         193.083 
       0.147318         178.543         177.177 
       0.153489         162.368          161.47 
       0.159709         148.949         147.669 
       0.165845         139.285         136.869 
       0.171974         130.191         128.887 
       0.178125         124.561          123.06 
       0.184229         120.163         118.471 
        0.19034         114.538         114.095 
       0.196428         110.517         109.258 
       0.202534         105.769         103.674 
       0.208729         99.0951         97.4424 
       0.214876         92.4594         91.1603 
       0.220989         87.5417         85.3292 
       0.227147         81.7696         80.2559 
        0.23329         77.7274         76.1389 
       0.239377         74.7668         72.8981 
       0.245482         71.4444         70.2351 
       0.251667         69.6812         67.8193 
       0.257832         67.1428         65.4085 
       0.263955         64.5935         62.8478 
       0.270079         61.8945         60.0979 
        0.27624         59.5441         57.2327 
       0.282372         56.7837         54.4387 
        0.28843         53.9857          51.877 
       0.294538          51.687         49.5895 
       0.300721         50.0948         47.5972 
        0.30691          47.964         45.8806 
       0.313033         46.4832         44.3683 
       0.319153         44.5042         42.9429 
       0.325316         43.7302         41.5169 
        0.33145         42.1053         40.0668 
       0.337538          40.744         38.5986 
       0.343633         39.1528         37.1327 
       0.349808         37.8713          35.697 
       0.355968         36.5744         34.3578 
       0.362074         35.3013         33.1428 
       0.368217         34.2171         32.0383 
       0.374374          33.081         31.0291 
       0.380519         32.2511         30.0914 
       0.386598         31.3908         29.2042 
       0.392688         30.6366         28.3312 
        0.39888         29.6749         27.4512 
       0.405048         28.8764         26.5833 
       0.411186         28.0826         25.7365 
       0.417313         27.1139         24.9229 
       0.423458          26.382         24.1496 
       0.429607         25.5979         23.4225 
       0.435692         24.8462         22.7502 
       0.441815         24.2977         22.1145 
       0.447964         23.8378          21.507 
       0.454126         22.9817         20.9209 
       0.460267         22.4992         20.3537 
       0.466387         21.8041         19.8004 
        0.47254         21.3987         19.2561 
       0.478662         20.9521         18.7301 
       0.484765         20.3145         18.2246 
       0.490885         19.8193         17.7384 
       0.497035         19.5317         17.2715 
       0.503198         18.9954          16.826 
       0.509342         18.5274         16.4021 
       0.515458           18.09         15.9967 
       0.521598         17.7343         15.6029 
       0.527764         17.3039          15.219 
       0.533884         17.0015          14.849 
           0.54          16.607         14.4897 
       0.546137         16.2877         14.1397 
       0.552299         15.9744         13.7991 
       0.558452         15.4892         13.4708 
       0.564573         15.2635         13.1562 
       0.570708           14.96         12.8527 
       0.576825         14.5728         12.5611 
       0.582926         14.3154         12.2797 
       0.589034         13.9187         12.0065 
       0.595184         13.7067         11.7392 
       0.601379         13.4111         11.4779 
       0.607522         13.2071         11.2263 
       0.613639         13.0258         10.9831 
       0.619772         12.6712         10.7466 
       0.625918         12.5513         10.5168 
       0.632068         12.3423         10.2937 
       0.638161         12.0436         10.0792 
         0.6443         11.7968         9.86945 
       0.650464         11.5578         9.66517 
       0.656582         11.4544         9.46831 
       0.662703         11.2374         9.27702 
       0.668861         11.0337            9.09 
       0.675024         10.8098         8.90802 
       0.681124         10.6175         8.73284 
       0.687237         10.4563         8.56198 
       0.693381         10.3079         8.39486 
       0.699536         10.0287          8.2319 
       0.705665         9.91859         8.07399 
       0.711789          9.7487         7.92039 
       0.717957         9.58325          7.7698 
        0.72409         9.42023         7.62403 
       0.730186          9.2871         7.48295 
       0.736317         9.18622         7.34474 
       0.742472         9.03568         7.20956 
       0.748622         8.88203         7.07795 
        0.75476         8.69869         6.94996 
       0.760888         8.58819         6.82535 
       0.767043         8.48275         6.70333 
       0.773185         8.30778         6.58456 
       0.779291         8.23589         6.46937 
       0.785407         8.10156         6.35679 
       0.791564         7.97541          6.2462 
       0.797719         7.83726         6.13832 
       0.803834         7.77493         6.03369 
       0.809972          7.6835         5.93115 
       0.816124         7.52328         5.83078 
       0.822261         7.40384         5.73303 
       0.828378         7.31428         5.63783 
       0.834502          7.2502         5.54473 
       0.840667         7.10925         5.45315 
       0.846816         6.99147         5.36391 
       0.852925         6.93072         5.27725 
       0.859047          6.8372         5.19234 
       0.865192         6.76805         5.10903 
       0.871341         6.68985         5.02751 
       0.877463         6.58503         4.94815 
       0.883569         6.47506         4.87073 
       0.889708         6.37311         4.79457 
       0.895864         6.31222         4.71986 
       0.902008         6.23364         4.64691 
       0.908149          6.1666         4.57556 
       0.914301         6.06784          4.5056 
       0.920448         5.98449         4.43718 
       0.926574         5.90609         4.37043 
       0.932687         5.84809         4.30521 
       0.938823         5.77339          4.2411 
       0.944975         5.69696         4.17815 
       0.951105         5.63876         4.11672 
       0.957225         5.60792         4.05663 
       0.963368         5.52541         3.99755 
       0.969511         5.45337         3.93965 
       0.975621         5.37965         3.88322 
       0.981748          5.3258         3.82775 
       0.987916         5.26793         3.77303 
        0.99406         5.18021         3.71959 
        1.00019         5.11614          3.6673 
        1.00632           5.084         3.61606 
        1.01246         5.02485         3.56574 
        1.01859         4.95915         3.51646 
        1.02471         4.90651         3.46818 
        1.03085         4.85203         3.42065 
        1.03698         4.78744         3.37412 
        1.04314         4.74896         3.32826 
        1.04929         4.68777         3.28336 
        1.05541         4.63395         3.23948 
        1.06154         4.59213          3.1963 
        1.06769          4.5624         3.15385 
        1.07382         4.48919         3.11231 
        1.07993          4.4365         3.07161 
        1.08607         4.41226         3.03148 
        1.09222          4.3591         2.99203 
        1.09836         4.31863         2.95333 
        1.10449         4.27177         2.91536 
        1.11063         4.22363         2.87803 
        1.11677         4.18845         2.84136 
         1.1229         4.14597          2.8054 
        1.12903         4.09582         2.77004 
        1.13518         4.05846         2.73526 
        1.14131         4.00475          2.7011 
        1.14745         3.95376         2.66754 
        1.15359         3.93385         2.63455 
        1.15973         3.88463         2.60211 
        1.16584          3.8521         2.57037 
        1.17197         3.81518         2.53911 
        1.17811         3.78662         2.50828 
        1.18424         3.75376         2.47805 
        1.19038         3.72117         2.44823 
        1.19652         3.68209         2.41892 
        1.20267         3.64556          2.3901 
        1.20881         3.61307         2.36175 
        1.21495          3.5821          2.3339 
        1.22108         3.54662         2.30651 
         1.2272         3.52486         2.27963 
        1.23334         3.47805         2.25312 
        1.23949         3.44354         2.22696 
        1.24562         3.42554          2.2013 
        1.25174         3.38329         2.17608 
        1.25789         3.35952         2.15118 
        1.26402         3.32472         2.12672 
        1.27014         3.29445          2.1027 
        1.27628         3.27517         2.07899 
        1.28244         3.23275         2.05559 
        1.28858         3.21654         2.03259 
        1.29471         3.17985         2.00999 
        1.30084         3.14943         1.98776 
        1.30697         3.14225         1.96584 
        1.31312         3.08601         1.94421 
        1.31925         3.07318         1.92298 
        1.32537         3.04531         1.90209 
        1.33151          3.0286         1.88144 
        1.33765         2.98892          1.8611 
        1.34378         2.96787         1.84111 
        1.34992         2.95518          1.8214 
        1.35606         2.91216         1.80193 
         1.3622         2.90175         1.78279 
        1.36833         2.87519         1.76397 
        1.37445         2.84975         1.74543 
        1.38059         2.83532          1.7271 
        1.38675         2.81761           1.709 
        1.39288         2.78606         1.69122 
        1.39901         2.75825         1.67371 
        1.40515          2.7392         1.65641 
         1.4113         2.72051         1.63936 
        1.41742         2.70049         1.62261 
        1.42355         2.68248         1.60607 
         1.4297         2.65368         1.58971 
        1.43585         2.64168         1.57359 
        1.44198         2.62517         1.55775 
        1.44809         2.59442         1.54216 
        1.45423         2.57492         1.52673 
        1.46036         2.55375         1.51154 
        1.46649         2.53503         1.49655 
        1.47263         2.51482         1.48175 
        1.47877         2.49186         1.46716 
        1.48491         2.47529         1.45274 
        1.49104         2.46194         1.43855 
        1.49718         2.44428         1.42454 
        1.50333         2.42507         1.41069 
        1.50947         2.40862         1.39705 
         1.5156         2.38945         1.38362 
        1.52172         2.37275         1.37036 
        1.52787          2.3552         1.35725 
          1.534         2.33813         1.34433 
        1.54013         2.32183         1.33159 
        1.54627         2.30071         1.31899 
        1.55241         2.28358         1.30656 
        1.55855         2.27282          1.2943 
        1.56467         2.25772         1.28223 
         1.5708         2.23526         1.27029 
        1.57695         2.22253         1.25848 
        1.58308         2.20609         1.24685 
        1.58922         2.19471         1.23535 
        1.59535         2.17857         1.22401 
         1.6015         2.16331         1.21279 
        1.60764         2.15046         1.20172 
        1.61376         2.13667         1.19082 
        1.61989         2.11925         1.18005 
        1.62604         2.10316         1.16938 
        1.63218         2.09733         1.15886 
        1.63831         2.07518         1.14849 
        1.64444         2.06132         1.13824 
        1.65059         2.05158         1.12809 
        1.65673         2.03696         1.11808 
        1.66285         2.02116         1.10822 
        1.66898          2.0114         1.09847 
        1.67512          1.9929         1.08883 
        1.68127         1.98118         1.07929 
         1.6874         1.97465         1.06988 
        1.69353         1.95109          1.0606 
        1.69967         1.94086          1.0514 
        1.70581         1.93628         1.04232 
        1.71193           1.919         1.03337 
        1.71806         1.91118         1.02452 
        1.72421         1.89747         1.01575 
        1.73035         1.88444         1.00709 
        1.73649         1.87228        0.998534 
        1.74262         1.86059        0.990086 
        1.74876         1.85248        0.981731 
        1.75489         1.83468        0.973489 
        1.76101         1.82418        0.965345 
        1.76715         1.81505        0.957283 
        1.77329         1.80536        0.949303 
        1.77943         1.78933        0.941411 
        1.78557         1.78025        0.933621 
        1.79171         1.77438        0.925918 
        1.79785         1.75833        0.918301 
        1.80399         1.74963        0.910771 
        1.81012         1.74227        0.903336 
        1.81625         1.72823        0.895987 
        1.82239          1.7171         0.88871 
        1.82853         1.70257        0.881517 
        1.83466         1.69867        0.874411 
        1.84078         1.68719        0.867391 
        1.84692         1.67982        0.860437 
        1.85306         1.66637        0.853551 
         1.8592         1.65783        0.846751 
        1.86533         1.64707         0.84003 
        1.87147         1.64069        0.833373 
        1.87761         1.62987        0.826786 
        1.88375         1.61686        0.820278 
        1.88988          1.6119        0.813848 
        1.89601         1.60059        0.807482 
        1.90215         1.58851         0.80118 
        1.90829         1.57908        0.794948 
        1.91442         1.57375        0.788782 
        1.92056         1.56394        0.782687 
         1.9267         1.55535         0.77665 
        1.93284         1.55001        0.770673 
        1.93897         1.53928        0.764771 
        1.94509         1.52915        0.758943 
        1.95123         1.51881        0.753161 
        1.95737         1.51167        0.747436 
        1.96349         1.50362        0.741785 
        1.96964         1.49763        0.736175 
        1.97578         1.48747        0.730622 
        1.98192         1.48041        0.725138 
        1.98805         1.47026        0.719709 
        1.99419         1.46562        0.714335 
        2.00033         1.46086        0.709014 
        2.00647         1.44736        0.703749 
         2.0126         1.44244        0.698546 
        2.01874         1.43201        0.693388 
        2.02488         1.42712        0.688278 
        2.03101         1.41507        0.683229 
        2.03714         1.40734        0.678235 
        2.04328         1.40385        0.673286 
        2.04941         1.39294         0.66839 
        2.05554         1.38801        0.663547 
        2.06167         1.37917        0.658745 
        2.06781         1.37459         0.65399 
        2.07396         1.36584        0.649276 
        2.08009         1.35909        0.644616 
        2.08622         1.35019        0.640007 
        2.09237         1.34658        0.635435 
        2.09851         1.33851        0.630906 
        2.10464         1.33444        0.626429 
        2.11077         1.32498        0.622001 
        2.11691         1.31706        0.617606 
        2.12305         1.31277        0.613253 
        2.12918         1.30534        0.608953 
        2.13531         1.29907        0.604693 
        2.14145         1.29122        0.600465 
         2.1476         1.28359        0.596272 
        2.15372          1.2783         0.59214 
        2.15985         1.27094        0.588043 
        2.16599         1.26588        0.583973 
        2.17213         1.25798        0.579946 
        2.17827         1.25415        0.575958 
         2.1844         1.24863        0.572011 
        2.19054         1.24386          0.5681 
        2.19666         1.23599        0.564231 
         2.2028         1.22963        0.560395 
        2.20893         1.22332        0.556592 
        2.21508         1.21994        0.552821 
        2.22122          1.2089        0.549083 
        2.22736         1.20422        0.545388 
        2.23349         1.20307        0.541728 
        2.23962         1.19351        0.538099 
        2.24577         1.18868        0.534501 
         2.2519         1.18142         0.53094 
        2.25802         1.17869        0.527418 
        2.26417         1.17117        0.523918 
        2.27031         1.16711        0.520446 
        2.27644         1.16107        0.517017 
        2.28257         1.15606        0.513618 
        2.28872         1.14983        0.510244 
        2.29486         1.14522          0.5069 
        2.30099         1.13859        0.503594 
        2.30712         1.13341        0.500315 
        2.31326         1.13107        0.497061 
         2.3194         1.12492        0.493837 
        2.32553         1.12054        0.490647 
        2.33166          1.1128        0.487487 
         2.3378         1.10741         0.48435 
        2.34394         1.10203         0.48124 
        2.35007          1.0974        0.478162 
        2.35619         1.09537        0.475115 
        2.36233          1.0872        0.472086 
        2.36848         1.08354        0.469078 
        2.37462         1.07862        0.466103 
        2.38075         1.07447        0.463156 
        2.38689         1.06962        0.460232 
        2.39303         1.06487        0.457334 
        2.39916         1.05882        0.454464 
        2.40529         1.05598        0.451619 
        2.41143         1.05043        0.448796 
        2.41757         1.04592        0.445996 
         2.4237         1.04322        0.443225 
        2.42983         1.03668        0.440478 
        2.43598         1.03369        0.437747 
        2.44211         1.02894        0.435043 
        2.44823         1.02383        0.432369 
        2.45437         1.02006        0.429709 
        2.46052         1.01691         0.42707 
        2.46665         1.01175        0.424458 
        2.47279         1.00709        0.421868 
        2.47892         1.00163        0.419298 
        2.48507        0.998768        0.416748 
         2.4912        0.993678        0.414223 
