# k  (h/Mpc)    Pcb(k)  (Mpc/h)^3    Pcb_linear(k)  (Mpc/h)^3
     0.00783031         10860.3         11005.7 
       0.013688         13630.4         13538.2 
       0.019231         13667.5           13645 
      0.0249154         12331.6           12547 
      0.0312784         10709.1         10799.9 
      0.0375637         9164.88         9158.18 
      0.0433917         7852.16         7962.45 
      0.0492413         7072.19         7109.35 
      0.0555754         6323.78         6486.06 
      0.0619321         6040.49         6027.47 
       0.067871         5499.48         5627.86 
      0.0738098         5067.43         5186.17 
      0.0800417         4519.05          4665.5 
      0.0862327         4052.33         4128.72 
      0.0921407            3646         3652.36 
      0.0982031          3227.4         3244.16 
       0.104506         2997.31         2926.34 
       0.110769         2770.34         2709.43 
       0.116806         2606.25         2566.23 
       0.122832         2496.72         2453.55 
       0.129052         2329.94         2336.69 
       0.135211          2203.9         2200.58 
       0.141259         2088.96         2044.25 
       0.147318         1946.72         1875.84 
       0.153489         1771.14         1709.54 
       0.159709         1658.46         1563.41 
       0.165845         1579.75         1449.07 
       0.171974          1486.7         1364.56 
       0.178125         1418.67         1302.86 
       0.184229         1364.83         1254.27 
        0.19034         1283.84         1207.94 
       0.196428         1258.86         1156.73 
       0.202534         1212.37         1097.61 
       0.208729         1147.62         1031.63 
       0.214876          1086.2         965.119 
       0.220989         1045.34         903.384 
       0.227147         992.162         849.671 
        0.23329         950.967         806.083 
       0.239377         931.229         771.772 
       0.245482         871.116         743.578 
       0.251667         864.773         718.001 
       0.257832         832.806         692.477 
       0.263955         804.814         665.366 
       0.270079         774.696         636.253 
        0.27624         764.196         605.918 
       0.282372         731.553         576.339 
        0.28843         715.655         549.217 
       0.294538         679.707             525 
       0.300721         675.776         503.907 
        0.30691         645.519         485.733 
       0.313033         632.952         469.723 
       0.319153         615.178         454.632 
       0.325316         596.815         439.534 
        0.33145         580.061         424.182 
       0.337538         571.824         408.639 
       0.343633         554.101         393.119 
       0.349808         535.055          377.92 
       0.355968         530.471         363.741 
       0.362074         521.091         350.878 
       0.368217         506.455         339.184 
       0.374374         485.533           328.5 
       0.380519         482.737         318.573 
       0.386598         470.439         309.181 
       0.392688          467.65         299.938 
        0.39888         454.026         290.622 
       0.405048         444.805         281.433 
       0.411186         436.946         272.468 
       0.417313         428.592         263.855 
       0.423458         420.673         255.667 
       0.429607         412.835         247.969 
       0.435692         402.814         240.852 
       0.441815         399.561         234.122 
       0.447964         391.284         227.691 
       0.454126         380.594         221.486 
       0.460267          374.78          215.48 
       0.466387         370.464         209.623 
        0.47254         362.979          203.86 
       0.478662         361.939         198.292 
       0.484765          350.06         192.941 
       0.490885         346.451         187.793 
       0.497035         340.439          182.85 
       0.503198         334.646         178.134 
       0.509342         331.974         173.646 
       0.515458         328.069         169.354 
       0.521598         321.064         165.185 
       0.527764         315.754         161.121 
       0.533884         313.206         157.203 
           0.54         308.713           153.4 
       0.546137         307.357         149.694 
       0.552299         300.912         146.088 
       0.558452          298.85         142.612 
       0.564573         294.258         139.282 
       0.570708         288.825         136.069 
       0.576825         284.101         132.981 
       0.582926         281.587         130.003 
       0.589034         278.861          127.11 
       0.595184         276.088         124.281 
       0.601379         272.818         121.514 
       0.607522         268.193          118.85 
       0.613639         266.785         116.276 
       0.619772         260.703         113.772 
       0.625918         259.534         111.339 
       0.632068         255.654         108.977 
       0.638161         254.549         106.706 
         0.6443         250.288         104.486 
       0.650464         247.906         102.323 
       0.656582         246.162         100.239 
       0.662703         244.513         98.2137 
       0.668861         240.117         96.2338 
       0.675024         237.399         94.3073 
       0.681124         236.341         92.4526 
       0.687237         233.311         90.6437 
       0.693381         229.809         88.8745 
       0.699536         228.023         87.1493 
       0.705665         226.498         85.4775 
       0.711789         223.829         83.8514 
       0.717957          222.72         82.2571 
        0.72409         220.111         80.7139 
       0.730186         217.508         79.2203 
       0.736317         215.256         77.7571 
       0.742472         214.193          76.326 
       0.748622         212.296         74.9327 
        0.75476         210.528         73.5776 
       0.760888         207.725         72.2584 
       0.767043         207.528         70.9666 
       0.773185          205.09         69.7093 
       0.779291         201.369         68.4898 
       0.785407         200.905         67.2979 
       0.791564         198.976         66.1271 
       0.797719         196.439          64.985 
       0.803834         195.422         63.8773 
       0.809972          194.02         62.7917 
       0.816124         193.811         61.7292 
       0.822261         191.136         60.6943 
       0.828378         189.452         59.6864 
       0.834502         189.152         58.7008 
       0.840667          186.25         57.7312 
       0.846816         184.828         56.7865 
       0.852925         184.098          55.869 
       0.859047         182.186           54.97 
       0.865192         180.561         54.0881 
       0.871341         178.974         53.2251 
       0.877463         177.697          52.385 
       0.883569         176.947         51.5652 
       0.889708         175.237          50.759 
       0.895864          173.16         49.9681 
       0.902008         172.473         49.1957 
       0.908149         171.811         48.4404 
       0.914301         169.733         47.6997 
       0.920448          168.48         46.9754 
       0.926574          167.58         46.2687 
       0.932687         167.265         45.5782 
       0.938823         165.084         44.8995 
       0.944975         163.592         44.2331 
       0.951105         162.976         43.5827 
       0.957225         161.316         42.9466 
       0.963368         159.523         42.3211 
       0.969511         159.118         41.7082 
       0.975621         158.051         41.1107 
       0.981748         157.638         40.5235 
       0.987916         155.821         39.9442 
        0.99406         154.619         39.3784 
        1.00019         154.442         38.8248 
        1.00632         152.919         38.2824 
        1.01246         152.002         37.7496 
        1.01859         151.101         37.2279 
        1.02471         149.747         36.7168 
        1.03085         148.243         36.2136 
        1.03698         147.696          35.721 
        1.04314         146.373         35.2355 
        1.04929         145.458         34.7602 
        1.05541         144.941         34.2956 
        1.06154         143.881         33.8385 
        1.06769         143.764          33.389 
        1.07382         142.462         32.9492 
        1.07993         141.244         32.5184 
        1.08607         140.393         32.0936 
        1.09222         139.877         31.6759 
        1.09836         138.633         31.2662 
        1.10449          137.44         30.8643 
        1.11063         136.481          30.469 
        1.11677         136.211         30.0808 
         1.1229          134.84         29.7001 
        1.12903         134.171         29.3257 
        1.13518         133.963         28.9575 
        1.14131         132.571         28.5958 
        1.14745         132.039         28.2406 
        1.15359         131.107         27.8914 
        1.15973         130.672         27.5479 
        1.16584         129.256         27.2118 
        1.17197         128.736         26.8809 
        1.17811         128.041         26.5545 
        1.18424         127.395         26.2345 
        1.19038         126.961         25.9189 
        1.19652          125.99         25.6086 
        1.20267         125.211         25.3034 
        1.20881         124.234         25.0032 
        1.21495         123.664         24.7084 
        1.22108         123.065         24.4185 
         1.2272         121.922         24.1339 
        1.23334         121.458         23.8532 
        1.23949         120.429         23.5763 
        1.24562         119.977         23.3046 
        1.25174         118.887         23.0376 
        1.25789         118.469         22.7741 
        1.26402         117.756         22.5151 
        1.27014         117.071         22.2608 
        1.27628         116.515         22.0097 
        1.28244         115.947          21.762 
        1.28858         115.534         21.5185 
        1.29471         114.265         21.2793 
        1.30084         113.942          21.044 
        1.30697         113.158         20.8118 
        1.31312         112.803         20.5829 
        1.31925         111.809         20.3581 
        1.32537         111.376          20.137 
        1.33151         110.322         19.9183 
        1.33765         110.012          19.703 
        1.34378         109.349         19.4914 
        1.34992         109.105         19.2827 
        1.35606         108.362         19.0766 
         1.3622         107.474         18.8739 
        1.36833         107.051         18.6747 
        1.37445         106.353         18.4784 
        1.38059          105.87         18.2844 
        1.38675         105.099         18.0927 
        1.39288         104.748         17.9045 
        1.39901         104.331         17.7191 
        1.40515         103.548          17.536 
         1.4113         102.795         17.3555 
        1.41742         102.608         17.1782 
        1.42355         101.809         17.0031 
         1.4297         101.339         16.8299 
        1.43585         100.529         16.6592 
        1.44198         100.265         16.4915 
        1.44809         99.5751         16.3265 
        1.45423         98.9957         16.1631 
        1.46036         98.7788         16.0023 
        1.46649         98.0672         15.8436 
        1.47263         97.5129         15.6869 
        1.47877         97.2741         15.5324 
        1.48491         96.3266         15.3798 
        1.49104         96.1056         15.2296 
        1.49718         95.3933         15.0812 
        1.50333         94.9745         14.9346 
        1.50947         94.5009         14.7903 
         1.5156         93.9317          14.648 
        1.52172         93.3869         14.5077 
        1.52787         93.0902         14.3689 
          1.534         92.4374         14.2321 
        1.54013         91.8816         14.0972 
        1.54627         91.5664         13.9639 
        1.55241         90.9684         13.8322 
        1.55855         90.6414         13.7024 
        1.56467          90.189         13.5747 
         1.5708         89.5778         13.4482 
        1.57695         89.4847         13.3232 
        1.58308         88.5297            13.2 
        1.58922         88.4674         13.0784 
        1.59535         87.9637         12.9583 
         1.6015         87.3627         12.8395 
        1.60764          86.949         12.7223 
        1.61376         86.7101         12.6069 
        1.61989         86.0505         12.4929 
        1.62604         85.8173           12.38 
        1.63218         85.3317         12.2685 
        1.63831         84.5831         12.1587 
        1.64444         84.3537         12.0503 
        1.65059          83.852         11.9428 
        1.65673         83.2515         11.8369 
        1.66285         83.0402         11.7324 
        1.66898         82.5104         11.6293 
        1.67512         82.0728         11.5271 
        1.68127         81.7243         11.4262 
         1.6874         81.2917         11.3266 
        1.69353         80.8496         11.2283 
        1.69967         80.3292         11.1309 
        1.70581          80.176         11.0347 
        1.71193         79.8822         10.9401 
        1.71806         79.2226         10.8463 
        1.72421         78.8366         10.7534 
        1.73035         78.4424         10.6618 
        1.73649         78.0771         10.5712 
        1.74262          77.687         10.4818 
        1.74876         77.3568         10.3933 
        1.75489         76.7358         10.3061 
        1.76101         76.5639         10.2199 
        1.76715         76.0497         10.1345 
        1.77329         75.7959           10.05 
        1.77943         75.2231         9.96649 
        1.78557         75.0924         9.88401 
        1.79171         74.5369         9.80246 
        1.79785         74.2057         9.72182 
        1.80399         73.9424          9.6421 
        1.81012           73.65         9.56339 
        1.81625         73.0698          9.4856 
        1.82239         72.8098         9.40855 
        1.82853          72.522          9.3324 
        1.83466         72.1122         9.25717 
        1.84078         71.8318         9.18285 
        1.84692         71.2514         9.10923 
        1.85306         70.9531         9.03633 
         1.8592         70.5478         8.96435 
        1.86533         70.2701         8.89319 
        1.87147         69.7906         8.82272 
        1.87761         69.5608         8.75298 
        1.88375         69.1843         8.68408 
        1.88988         68.9259           8.616 
        1.89601         68.4923         8.54861 
        1.90215         68.1907         8.48189 
        1.90829         67.9334         8.41592 
        1.91442         67.5484         8.35064 
        1.92056         67.0256         8.28611 
         1.9267         66.8996          8.2222 
        1.93284         66.4307         8.15893 
        1.93897         66.0773         8.09644 
        1.94509         65.8023         8.03474 
        1.95123         65.4883         7.97353 
        1.95737         65.2758         7.91291 
        1.96349         64.7498         7.85309 
        1.96964          64.588         7.79371 
        1.97578         64.2999         7.73491 
        1.98192         63.9568         7.67685 
        1.98805         63.7464         7.61938 
        1.99419         63.2475         7.56249 
        2.00033         62.9979         7.50616 
        2.00647         62.7586         7.45041 
         2.0126         62.2558         7.39533 
        2.01874         62.0019         7.34073 
        2.02488         61.8061         7.28663 
        2.03101         61.5315         7.23317 
        2.03714         61.1415         7.18031 
        2.04328         60.9401         7.12791 
        2.04941         60.5728         7.07608 
        2.05554         60.2885         7.02481 
        2.06167         59.9773         6.97397 
        2.06781          59.727         6.92363 
        2.07396         59.3688         6.87372 
        2.08009         59.1825         6.82439 
        2.08622         58.8932          6.7756 
        2.09237         58.5132         6.72719 
        2.09851         58.3811         6.67924 
        2.10464         57.9801         6.63185 
        2.11077         57.6582         6.58497 
        2.11691         57.4038         6.53844 
        2.12305         57.1818         6.49236 
        2.12918         56.9083         6.44683 
        2.13531         56.5531         6.40174 
        2.14145         56.3108         6.35697 
         2.1476         56.1043         6.31258 
        2.15372         55.7999         6.26883 
        2.15985         55.4997         6.22546 
        2.16599         55.2233         6.18237 
        2.17213         55.0213         6.13974 
        2.17827         54.7274         6.09752 
         2.1844         54.4082         6.05574 
        2.19054         54.1218         6.01433 
        2.19666         53.8776         5.97337 
         2.2028         53.7851         5.93276 
        2.20893         53.5222          5.8925 
        2.21508          53.196         5.85257 
        2.22122         52.9643           5.813 
        2.22736         52.7559         5.77388 
        2.23349          52.484         5.73513 
        2.23962         52.1171         5.69672 
        2.24577         51.8621         5.65862 
         2.2519         51.5727         5.62093 
        2.25802         51.4931         5.58364 
        2.26417         51.1331         5.54659 
        2.27031          50.969         5.50983 
        2.27644         50.7407         5.47352 
        2.28257         50.4315         5.43754 
        2.28872         50.1423         5.40182 
        2.29486         50.0011         5.36643 
        2.30099         49.7778         5.33142 
        2.30712         49.5447         5.29671 
        2.31326         49.2299         5.26226 
         2.3194         48.9753         5.22813 
        2.32553         48.7343         5.19436 
        2.33166         48.5379          5.1609 
         2.3378         48.2796         5.12769 
        2.34394          48.002         5.09477 
        2.35007         47.7411         5.06218 
        2.35619         47.5987         5.02992 
        2.36233         47.4936         4.99786 
        2.36848         47.1501         4.96601 
        2.37462         46.9427         4.93451 
        2.38075         46.7473         4.90332 
        2.38689         46.5442         4.87236 
        2.39303         46.3206         4.84168 
        2.39916         46.1164          4.8113 
        2.40529         45.9017         4.78118 
        2.41143         45.6905         4.75129 
        2.41757         45.4182         4.72165 
         2.4237         45.3084         4.69231 
        2.42983         45.0351         4.66323 
        2.43598          44.787         4.63431 
        2.44211         44.6367         4.60569 
        2.44823         44.3832         4.57738 
        2.45437          44.198         4.54922 
        2.46052         43.8784         4.52128 
        2.46665         43.7437         4.49363 
        2.47279         43.5912         4.46621 
        2.47892         43.3961           4.439 
        2.48507         43.1328           4.412 
         2.4912         43.0033         4.38527 
