# k  (h/Mpc)    P(k)  (Mpc/h)^3    P_linear(k)  (Mpc/h)^3
     0.00783031         5517.52         5601.55 
       0.013688          6891.2         6883.97 
       0.019231         6931.04         6934.65 
      0.0249154         6290.91         6374.58 
      0.0312784         5455.56         5485.77 
      0.0375637         4657.51         4651.19 
      0.0433917         4009.35         4043.51 
      0.0492413         3601.75         3610.02 
      0.0555754         3241.69         3293.33 
      0.0619321         3073.41         3060.34 
       0.067871         2818.95         2857.35 
      0.0738098         2596.51         2633.02 
      0.0800417          2321.6         2368.62 
      0.0862327         2073.63         2096.07 
      0.0921407         1853.12          1854.2 
      0.0982031         1639.49         1646.95 
       0.104506         1509.87         1485.58 
       0.110769         1395.65         1375.45 
       0.116806         1310.86         1302.75 
       0.122832         1259.07         1245.53 
       0.129052         1181.74         1186.21 
       0.135211         1115.42          1117.1 
       0.141259         1050.59         1037.74 
       0.147318         974.317         952.244 
       0.153489         885.469         867.821 
       0.159709         821.822         793.638 
       0.165845         776.501         735.591 
       0.171974         726.927         692.689 
       0.178125         695.362         661.367 
       0.184229         670.667         636.702 
        0.19034         631.201         613.178 
       0.196428         616.663         587.181 
       0.202534         593.903          557.17 
       0.208729         558.704         523.677 
       0.214876         523.679         489.915 
       0.220989         501.686         458.575 
       0.227147         471.312          431.31 
        0.23329         450.498         409.184 
       0.239377         438.195         391.767 
       0.245482         411.469         377.454 
       0.251667         406.275         364.471 
       0.257832         392.689         351.513 
       0.263955         378.204         337.751 
       0.270079         363.424         322.973 
        0.27624         355.495         307.574 
       0.282372          340.25         292.559 
        0.28843         327.188         278.791 
       0.294538         312.401         266.498 
       0.300721         308.026         255.792 
        0.30691         293.855         246.565 
       0.313033         286.818         238.438 
       0.319153         275.376         230.778 
       0.325316         269.044         223.114 
        0.33145         259.808          215.32 
       0.337538         255.476          207.43 
       0.343633         246.526         199.552 
       0.349808         238.492         191.836 
       0.355968         233.929          184.64 
       0.362074         227.366          178.11 
       0.368217         221.077         172.174 
       0.374374         213.974          166.75 
       0.380519         210.006         161.711 
       0.386598         204.524         156.944 
       0.392688         201.438         152.252 
        0.39888         196.081         147.523 
       0.405048         191.417         142.859 
       0.411186         187.079         138.308 
       0.417313         182.784         133.936 
       0.423458         178.856          129.78 
       0.429607         174.527         125.872 
       0.435692         169.058         122.259 
       0.441815         167.746         118.843 
       0.447964         164.779         115.578 
       0.454126         157.646         112.429 
       0.460267         155.864          109.38 
       0.466387         153.462         106.407 
        0.47254         150.343         103.482 
       0.478662         148.758         100.655 
       0.484765         144.427         97.9387 
       0.490885         142.032         95.3259 
       0.497035         140.172         92.8166 
       0.503198         136.317         90.4227 
       0.509342         133.933         88.1446 
       0.515458         131.995         85.9656 
       0.521598         130.114         83.8495 
       0.527764           128.1         81.7865 
       0.533884         126.019         79.7978 
           0.54         123.741         77.8675 
       0.546137         122.627          75.986 
       0.552299          120.62         74.1559 
       0.558452         118.012         72.3914 
       0.564573         115.914         70.7006 
       0.570708         114.326         69.0702 
       0.576825          112.71         67.5026 
       0.582926         110.569         65.9906 
       0.589034         108.682         64.5223 
       0.595184         107.395         63.0861 
       0.601379         106.131         61.6815 
       0.607522         103.586         60.3294 
       0.613639         103.324         59.0228 
       0.619772         100.972         57.7519 
       0.625918         99.9553         56.5166 
       0.632068         98.7831         55.3176 
       0.638161         97.5992         54.1649 
         0.6443         96.2619         53.0379 
       0.650464         95.0588         51.9401 
       0.656582         93.8214         50.8822 
       0.662703         92.0968         49.8542 
       0.668861         91.0682         48.8492 
       0.675024         90.0029         47.8712 
       0.681124         88.9089         46.9298 
       0.687237         87.3292         46.0116 
       0.693381          86.414         45.1135 
       0.699536         85.3156         44.2378 
       0.705665         85.6562         43.3892 
       0.711789         83.3004         42.5638 
       0.717957          82.789         41.7545 
        0.72409         81.6119         40.9711 
       0.730186           80.25          40.213 
       0.736317         80.0642         39.4702 
       0.742472         79.0686         38.7438 
       0.748622         78.3086         38.0365 
        0.75476         77.4417         37.3487 
       0.760888         76.3366          36.679 
       0.767043          75.609         36.0233 
       0.773185         74.7117         35.3851 
       0.779291         74.1721          34.766 
       0.785407         73.5085          34.161 
       0.791564         72.5629         33.5667 
       0.797719          71.483          32.987 
       0.803834         71.2241         32.4247 
       0.809972          69.992         31.8736 
       0.816124         69.4605         31.3343 
       0.822261         68.9314          30.809 
       0.828378         68.3686         30.2974 
       0.834502         67.6313          29.797 
       0.840667         67.0155         29.3049 
       0.846816         66.1508         28.8253 
       0.852925         65.5949         28.3596 
       0.859047         64.7372         27.9033 
       0.865192         64.4123         27.4556 
       0.871341         64.0431         27.0175 
       0.877463         62.8945         26.5911 
       0.883569         62.5082          26.175 
       0.889708         62.1634         25.7657 
       0.895864         61.5866         25.3642 
       0.902008         61.0214         24.9722 
       0.908149          60.577         24.5887 
       0.914301         60.0525         24.2128 
       0.920448         59.4854         23.8451 
       0.926574         58.9559         23.4864 
       0.932687         58.5866         23.1359 
       0.938823         57.6793         22.7914 
       0.944975         57.5116         22.4531 
       0.951105         56.9456          22.123 
       0.957225         56.2341         21.8001 
       0.963368         56.1738         21.4826 
       0.969511          55.728         21.1714 
       0.975621         55.2901         20.8682 
       0.981748         54.6676         20.5701 
       0.987916         54.3332          20.276 
        0.99406         54.0013         19.9888 
        1.00019         53.3376         19.7078 
        1.00632         53.1132         19.4325 
        1.01246          52.655          19.162 
        1.01859         51.9738         18.8972 
        1.02471         52.0926         18.6378 
        1.03085         51.5085         18.3823 
        1.03698         51.0113         18.1323 
        1.04314         50.5425         17.8858 
        1.04929         50.2978         17.6446 
        1.05541         49.7589         17.4088 
        1.06154         49.7056         17.1767 
        1.06769         49.2228         16.9486 
        1.07382         48.9418         16.7253 
        1.07993         48.7238         16.5066 
        1.08607         48.1827          16.291 
        1.09222         47.9932          16.079 
        1.09836         47.6117          15.871 
        1.10449         47.2507          15.667 
        1.11063         46.7368         15.4663 
        1.11677         46.4997         15.2693 
         1.1229         46.3071          15.076 
        1.12903         45.6471          14.886 
        1.13518         45.7281         14.6991 
        1.14131         45.4991         14.5155 
        1.14745         44.8814         14.3352 
        1.15359         44.8368         14.1579 
        1.15973         44.3161         13.9836 
        1.16584         44.0391          13.813 
        1.17197         43.8882          13.645 
        1.17811         43.5718         13.4793 
        1.18424          43.127         13.3169 
        1.19038          43.055         13.1566 
        1.19652         42.8369         12.9991 
        1.20267         42.5064         12.8442 
        1.20881         42.1894         12.6918 
        1.21495         41.8747         12.5422 
        1.22108         41.6425          12.395 
         1.2272         41.2054         12.2506 
        1.23334         41.0928         12.1081 
        1.23949         40.9862         11.9675 
        1.24562         40.6515         11.8296 
        1.25174          40.474         11.6941 
        1.25789         40.1974         11.5603 
        1.26402         39.8974         11.4289 
        1.27014         39.5497         11.2998 
        1.27628         39.4248         11.1723 
        1.28244         39.1379         11.0466 
        1.28858          39.005          10.923 
        1.29471         38.8352         10.8016 
        1.30084          38.595         10.6821 
        1.30697         38.2769         10.5643 
        1.31312         37.9605          10.448 
        1.31925          37.889          10.334 
        1.32537         37.6893         10.2217 
        1.33151         37.3987         10.1107 
        1.33765         37.3511         10.0014 
        1.34378         37.1009         9.89399 
        1.34992         36.6696         9.78806 
        1.35606         36.5108         9.68346 
         1.3622         36.3227         9.58058 
        1.36833         36.1327         9.47944 
        1.37445         36.1097         9.37982 
        1.38059         35.8608         9.28133 
        1.38675         35.5354         9.18402 
        1.39288         35.4574          9.0885 
        1.39901         35.1401         8.99439 
        1.40515         35.0065         8.90141 
         1.4113         34.8933         8.80978 
        1.41742          34.542         8.71979 
        1.42355         34.4646          8.6309 
         1.4297         34.2334         8.54299 
        1.43585         34.1823         8.45634 
        1.44198          33.877         8.37123 
        1.44809         33.7301         8.28746 
        1.45423          33.606         8.20453 
        1.46036         33.4753         8.12288 
        1.46649         33.2167         8.04233 
        1.47263          33.059          7.9628 
        1.47877         32.9551         7.88439 
        1.48491         32.7795         7.80692 
        1.49104          32.609         7.73065 
        1.49718         32.2987         7.65535 
        1.50333         32.2643         7.58094 
        1.50947         32.1086         7.50766 
         1.5156         31.8992         7.43547 
        1.52172         31.6947         7.36423 
        1.52787         31.7067         7.29378 
          1.534         31.4236         7.22434 
        1.54013         31.2222         7.15587 
        1.54627          31.171         7.08818 
        1.55241         30.9599         7.02135 
        1.55855         30.7948         6.95548 
        1.56467         30.6009         6.89064 
         1.5708         30.5738         6.82644 
        1.57695           30.26         6.76297 
        1.58308          30.305         6.70046 
        1.58922         30.1172         6.63869 
        1.59535         29.9108         6.57773 
         1.6015         29.7584         6.51746 
        1.60764         29.6833         6.45797 
        1.61376         29.4786         6.39939 
        1.61989         29.2568         6.34149 
        1.62604         29.2482         6.28418 
        1.63218         29.0427         6.22762 
        1.63831         28.9521         6.17188 
        1.64444         28.8146         6.11681 
        1.65059         28.6005         6.06229 
        1.65673         28.4833         6.00849 
        1.66285         28.3838         5.95549 
        1.66898         28.2339         5.90312 
        1.67512         28.1542         5.85128 
        1.68127         27.9307         5.80001 
         1.6874         27.8479         5.74948 
        1.69353          27.738         5.69958 
        1.69967         27.5673         5.65015 
        1.70581         27.4691         5.60133 
        1.71193         27.3433         5.55327 
        1.71806         27.1935         5.50567 
        1.72421         27.0376         5.45854 
        1.73035         26.9377         5.41202 
        1.73649         26.8471         5.36605 
        1.74262         26.6919         5.32065 
        1.74876         26.6596         5.27575 
        1.75489         26.4616         5.23146 
        1.76101         26.3519         5.18769 
        1.76715         26.2422         5.14437 
        1.77329         26.1634         5.10149 
        1.77943         26.0097         5.05908 
        1.78557         25.8958         5.01721 
        1.79171         25.7966         4.97582 
        1.79785         25.6517         4.93488 
        1.80399         25.5339         4.89442 
        1.81012         25.4913         4.85446 
        1.81625         25.3488         4.81497 
        1.82239         25.3045         4.77586 
        1.82853         25.0711         4.73721 
        1.83466         24.9617         4.69902 
        1.84078         24.8053          4.6613 
        1.84692         24.7885         4.62393 
        1.85306          24.651         4.58692 
         1.8592         24.5305         4.55038 
        1.86533         24.4125         4.51426 
        1.87147         24.3193         4.47849 
        1.87761            24.3         4.44309 
        1.88375         24.1631         4.40812 
        1.88988         24.0788         4.37356 
        1.89601         23.8929         4.33935 
        1.90215         23.8487         4.30548 
        1.90829         23.7845         4.27199 
        1.91442         23.6223         4.23886 
        1.92056         23.5565          4.2061 
         1.9267         23.4249         4.17366 
        1.93284         23.3091         4.14154 
        1.93897         23.2547         4.10982 
        1.94509         23.1497         4.07851 
        1.95123         23.0095         4.04743 
        1.95737         22.9421         4.01667 
        1.96349         22.8407          3.9863 
        1.96964         22.7206         3.95615 
        1.97578         22.6869         3.92631 
        1.98192         22.5181         3.89684 
        1.98805         22.4844         3.86766 
        1.99419         22.3643         3.83879 
        2.00033         22.2168         3.81019 
        2.00647         22.1515          3.7819 
         2.0126         22.0409         3.75394 
        2.01874         21.9817         3.72622 
        2.02488         21.9657         3.69876 
        2.03101         21.8189         3.67162 
        2.03714         21.7152         3.64479 
        2.04328         21.6112         3.61819 
        2.04941         21.5394         3.59188 
        2.05554         21.4779         3.56586 
        2.06167         21.3897         3.54005 
        2.06781         21.3016          3.5145 
        2.07396         21.2174         3.48916 
        2.08009         21.1563         3.46412 
        2.08622         21.0252         3.43935 
        2.09237         20.9524         3.41478 
        2.09851         20.8611         3.39044 
        2.10464         20.8066         3.36638 
        2.11077         20.6485         3.34259 
        2.11691         20.6385         3.31897 
        2.12305          20.526         3.29558 
        2.12918         20.4726         3.27247 
        2.13531         20.3766         3.24958 
        2.14145         20.3037         3.22685 
         2.1476         20.1956         3.20432 
        2.15372         20.1295         3.18212 
        2.15985         20.0141          3.1601 
        2.16599         19.9704         3.13823 
        2.17213         19.9118         3.11659 
        2.17827         19.7853         3.09516 
         2.1844         19.6947         3.07395 
        2.19054         19.6348         3.05293 
        2.19666         19.5879         3.03214 
         2.2028         19.5308         3.01152 
        2.20893         19.4023         2.99109 
        2.21508         19.3318         2.97082 
        2.22122         19.2157         2.95073 
        2.22736         19.1987         2.93088 
        2.23349         19.1004         2.91121 
        2.23962         19.0193         2.89171 
        2.24577         18.9206         2.87237 
         2.2519         18.8901         2.85324 
        2.25802         18.8299         2.83431 
        2.26417          18.754          2.8155 
        2.27031         18.6704         2.79684 
        2.27644         18.6108         2.77841 
        2.28257          18.518         2.76015 
        2.28872         18.4226         2.74201 
        2.29486         18.3702         2.72405 
        2.30099         18.2862         2.70628 
        2.30712         18.2804         2.68866 
        2.31326         18.1791         2.67117 
         2.3194         18.1001         2.65384 
        2.32553         18.0216          2.6367 
        2.33166         17.9293         2.61972 
         2.3378         17.8622         2.60286 
        2.34394         17.8189         2.58615 
        2.35007          17.739         2.56961 
        2.35619         17.6306         2.55323 
        2.36233         17.6064         2.53696 
        2.36848           17.53         2.52079 
        2.37462         17.4933          2.5048 
        2.38075         17.4076         2.48897 
        2.38689         17.3756         2.47326 
        2.39303         17.2635         2.45768 
        2.39916         17.2119         2.44226 
        2.40529         17.1364         2.42697 
        2.41143         17.0923          2.4118 
        2.41757         17.0236         2.39675 
         2.4237         16.9461         2.38186 
        2.42983         16.8939          2.3671 
        2.43598         16.8301         2.35242 
        2.44211         16.7512         2.33789 
        2.44823         16.6768         2.32352 
        2.45437         16.6438         2.30923 
        2.46052         16.5799         2.29504 
        2.46665         16.5302         2.28101 
        2.47279         16.4448         2.26709 
        2.47892          16.409         2.25328 
        2.48507         16.3411         2.23957 
         2.4912         16.2766         2.22601 
