# k  (h/Mpc)    P(k)  (Mpc/h)^3    P_linear(k)  (Mpc/h)^3
     0.00783031         1651.96         1677.92 
       0.013688         2052.59         2063.19 
       0.019231         2071.64         2078.92 
      0.0249154         1892.75         1911.32 
      0.0312784         1638.25         1645.01 
      0.0375637         1395.01         1394.84 
      0.0433917         1206.98         1212.66 
      0.0492413         1081.21         1082.69 
      0.0555754         979.489         987.738 
      0.0619321         920.228          917.88 
       0.067871         850.903         857.009 
      0.0738098         783.736         789.737 
      0.0800417         702.848         710.441 
      0.0862327         625.226         628.696 
      0.0921407         555.347         556.155 
      0.0982031         491.945         493.993 
       0.104506         448.579         445.595 
       0.110769         414.822         412.564 
       0.116806         390.198         390.758 
       0.122832         374.705         373.597 
       0.129052         354.138         355.803 
       0.135211         333.538         335.076 
       0.141259         312.024         311.272 
       0.147318          288.07         285.628 
       0.153489         261.884         260.306 
       0.159709         240.695         238.055 
       0.165845         225.565         220.644 
       0.171974         210.709         207.775 
       0.178125          201.67          198.38 
       0.184229         194.594         190.982 
        0.19034         184.915         183.926 
       0.196428         178.911         176.128 
       0.202534         171.544         167.126 
       0.208729         160.748          157.08 
       0.214876         149.988         146.953 
       0.220989         142.427         137.553 
       0.227147         133.008         129.374 
        0.23329         126.571         122.738 
       0.239377         122.014         117.513 
       0.245482         116.165          113.22 
       0.251667          113.61         109.326 
       0.257832         109.588         105.439 
       0.263955         105.394         101.311 
       0.270079         101.067         96.8783 
        0.27624         97.5567         92.2593 
       0.282372         93.1271         87.7553 
        0.28843         88.6317         83.6257 
       0.294538         84.8726         79.9384 
       0.300721         82.5236         76.7268 
        0.30691         78.9376         73.9592 
       0.313033         76.5661         71.5214 
       0.319153         73.2006         69.2239 
       0.325316         72.0212         66.9249 
        0.33145         69.3078         64.5871 
       0.337538         67.3017         62.2205 
       0.343633         64.7286         59.8575 
       0.349808         62.6507          57.543 
       0.355968         60.6431         55.3844 
       0.362074         58.5818         53.4257 
       0.368217         56.8164         51.6453 
       0.374374         55.0294         50.0183 
       0.380519          53.664         48.5068 
       0.386598         52.2294         47.0767 
       0.392688         51.0672         45.6695 
        0.39888         49.5143         44.2509 
       0.405048         48.2479         42.8517 
       0.411186         47.0024         41.4868 
       0.417313         45.4067         40.1752 
       0.423458         44.2074         38.9287 
       0.429607         42.9662         37.7564 
       0.435692         41.6432         36.6728 
       0.441815         40.8857          35.648 
       0.447964         40.1624         34.6688 
       0.454126         38.6085          33.724 
       0.460267         37.9049         32.8096 
       0.466387         36.7716         31.9177 
        0.47254         36.1667         31.0403 
       0.478662         35.4838         30.1925 
       0.484765         34.4076         29.3776 
       0.490885         33.6031         28.5939 
       0.497035         33.1472         27.8412 
       0.503198         32.2564         27.1232 
       0.509342          31.433         26.4398 
       0.515458         30.7606         25.7862 
       0.521598         30.2135         25.1515 
       0.527764          29.547         24.5326 
       0.533884         29.0356         23.9361 
           0.54         28.3906         23.3571 
       0.546137         27.9046         22.7927 
       0.552299         27.4239         22.2438 
       0.558452         26.5735         21.7145 
       0.564573         26.1961         21.2073 
       0.570708         25.7393         20.7183 
       0.576825         25.0898          20.248 
       0.582926         24.6284         19.7945 
       0.589034         23.9775         19.3541 
       0.595184         23.6556         18.9233 
       0.601379         23.1872          18.502 
       0.607522         22.7944         18.0964 
       0.613639         22.5377         17.7045 
       0.619772         21.9396         17.3233 
       0.625918         21.8036         16.9527 
       0.632068          21.438         16.5931 
       0.638161         20.9564         16.2473 
         0.6443         20.5338         15.9093 
       0.650464         20.1564           15.58 
       0.656582         20.0167         15.2626 
       0.662703         19.6368         14.9543 
       0.668861         19.2671         14.6528 
       0.675024         18.9118         14.3595 
       0.681124         18.5866         14.0771 
       0.687237         18.2884         13.8016 
       0.693381          18.096         13.5322 
       0.699536         17.6145         13.2696 
       0.705665         17.5045          13.015 
       0.711789         17.1574         12.7674 
       0.717957         16.9048         12.5247 
        0.72409          16.638         12.2897 
       0.730186         16.4126         12.0623 
       0.736317         16.2302         11.8395 
       0.742472         15.9592         11.6216 
       0.748622         15.7549         11.4094 
        0.75476         15.4507         11.2031 
       0.760888         15.2497         11.0022 
       0.767043         15.0652         10.8055 
       0.773185         14.7747         10.6141 
       0.779291         14.6827         10.4284 
       0.785407         14.4757         10.2469 
       0.791564         14.2284         10.0687 
       0.797719         13.9415         9.89477 
       0.803834         13.8935         9.72611 
       0.809972         13.7612         9.56081 
       0.816124         13.4499         9.39903 
       0.822261         13.2907         9.24146 
       0.828378         13.1363           9.088 
       0.834502         13.0212         8.93792 
       0.840667         12.8137         8.79029 
       0.846816         12.5876         8.64644 
       0.852925         12.4725         8.50675 
       0.859047         12.3262         8.36987 
       0.865192         12.2155         8.23558 
       0.871341          12.097         8.10418 
       0.877463          11.887         7.97626 
       0.883569         11.7195         7.85145 
       0.889708         11.5341         7.72869 
       0.895864          11.447         7.60825 
       0.902008         11.3449         7.49066 
       0.908149         11.2184         7.37564 
       0.914301         11.0964         7.26287 
       0.920448         10.9089         7.15258 
       0.926574         10.7948         7.04499 
       0.932687          10.687         6.93985 
       0.938823         10.5427          6.8365 
       0.944975         10.4129         6.73503 
       0.951105         10.3191           6.636 
       0.957225         10.2503         6.53915 
       0.963368         10.1258         6.44391 
       0.969511          10.022         6.35059 
       0.975621          9.9084         6.25962 
       0.981748         9.79427         6.17021 
       0.987916         9.71824           6.082 
        0.99406         9.56811         5.99585 
        1.00019         9.42671         5.91156 
        1.00632         9.40981         5.82897 
        1.01246         9.29975         5.74785 
        1.01859         9.16111         5.66842 
        1.02471         9.10218         5.59059 
        1.03085         9.00792         5.51397 
        1.03698         8.87873         5.43896 
        1.04314         8.82476         5.36504 
        1.04929         8.70927         5.29267 
        1.05541         8.61122         5.22193 
        1.06154         8.54753         5.15233 
        1.06769         8.50596         5.08389 
        1.07382         8.37301         5.01693 
        1.07993         8.30114         4.95133 
        1.08607         8.23814         4.88664 
        1.09222         8.16019         4.82305 
        1.09836         8.06894         4.76067 
        1.10449         7.99688         4.69947 
        1.11063         7.91796         4.63928 
        1.11677         7.87201         4.58018 
         1.1229         7.80837         4.52221 
        1.12903         7.71288          4.4652 
        1.13518         7.62488         4.40914 
        1.14131         7.55794         4.35407 
        1.14745         7.48344         4.29998 
        1.15359         7.43806         4.24681 
        1.15973         7.36767         4.19451 
        1.16584         7.26625         4.14334 
        1.17197         7.21708         4.09295 
        1.17811         7.18338         4.04325 
        1.18424         7.11634         3.99453 
        1.19038         7.08005         3.94647 
        1.19652         6.99807         3.89922 
        1.20267         6.92285         3.85275 
        1.20881         6.89934         3.80705 
        1.21495         6.83566         3.76217 
        1.22108         6.75677         3.71802 
         1.2272         6.71727         3.67468 
        1.23334         6.63726         3.63194 
        1.23949         6.58122         3.58979 
        1.24562         6.55049         3.54842 
        1.25174         6.48892         3.50777 
        1.25789         6.44294         3.46763 
        1.26402         6.40252          3.4282 
        1.27014         6.34532         3.38949 
        1.27628         6.27836         3.35125 
        1.28244         6.21361         3.31354 
        1.28858         6.20567         3.27646 
        1.29471         6.13255         3.24004 
        1.30084         6.07442          3.2042 
        1.30697         6.07492         3.16886 
        1.31312         5.96765           3.134 
        1.31925         5.93549         3.09978 
        1.32537         5.89154          3.0661 
        1.33151         5.87021         3.03281 
        1.33765         5.80005         3.00003 
        1.34378         5.76013         2.96781 
        1.34992         5.72803         2.93603 
        1.35606         5.66941         2.90465 
         1.3622         5.64258         2.87379 
        1.36833         5.59545         2.84346 
        1.37445         5.55778         2.81357 
        1.38059         5.53881         2.78403 
        1.38675           5.491         2.75484 
        1.39288         5.45401         2.72619 
        1.39901          5.3912         2.69796 
        1.40515         5.36401         2.67007 
         1.4113         5.32886         2.64259 
        1.41742         5.29205         2.61559 
        1.42355         5.24355         2.58893 
         1.4297         5.21036         2.56256 
        1.43585         5.18888         2.53657 
        1.44198         5.16441         2.51104 
        1.44809         5.11153         2.48591 
        1.45423         5.07208         2.46103 
        1.46036         5.03331         2.43654 
        1.46649         5.00236         2.41238 
        1.47263         4.96188         2.38853 
        1.47877         4.92873         2.36501 
        1.48491         4.89964         2.34177 
        1.49104          4.8703         2.31889 
        1.49718         4.83996          2.2963 
        1.50333         4.81245         2.27398 
        1.50947         4.77222           2.252 
         1.5156         4.74439         2.23035 
        1.52172         4.71701         2.20898 
        1.52787         4.68947         2.18784 
          1.534          4.6492         2.16702 
        1.54013         4.63111         2.14648 
        1.54627         4.58697         2.12617 
        1.55241         4.55971         2.10613 
        1.55855         4.54226         2.08637 
        1.56467         4.50885         2.06692 
         1.5708         4.48377         2.04766 
        1.57695         4.44383         2.02862 
        1.58308         4.41262         2.00987 
        1.58922         4.40268         1.99135 
        1.59535         4.37623         1.97306 
         1.6015         4.34024         1.95498 
        1.60764         4.31228         1.93713 
        1.61376         4.29179         1.91956 
        1.61989         4.26672          1.9022 
        1.62604         4.23472         1.88501 
        1.63218         4.22568         1.86804 
        1.63831         4.19322         1.85132 
        1.64444         4.16964          1.8348 
        1.65059          4.1279         1.81845 
        1.65673         4.12404         1.80231 
        1.66285         4.08385         1.78641 
        1.66898         4.06519          1.7707 
        1.67512         4.03942         1.75515 
        1.68127         4.01669         1.73978 
         1.6874         4.00385         1.72462 
        1.69353         3.96449         1.70965 
        1.69967         3.95033         1.69482 
        1.70581         3.93067         1.68018 
        1.71193         3.90589         1.66576 
        1.71806         3.88894         1.65149 
        1.72421         3.86254         1.63735 
        1.73035         3.84799         1.62339 
        1.73649         3.82179          1.6096 
        1.74262         3.79654         1.59599 
        1.74876         3.78539         1.58252 
        1.75489         3.76331         1.56923 
        1.76101         3.73167          1.5561 
        1.76715         3.72137         1.54311 
        1.77329         3.70417         1.53024 
        1.77943         3.66657         1.51752 
        1.78557         3.65953         1.50497 
        1.79171         3.63849         1.49255 
        1.79785         3.61732         1.48027 
        1.80399         3.59646         1.46813 
        1.81012         3.58075         1.45615 
        1.81625         3.56083          1.4443 
        1.82239         3.54207         1.43257 
        1.82853         3.51962         1.42098 
        1.83466         3.51051         1.40952 
        1.84078         3.49165         1.39821 
        1.84692         3.47926           1.387 
        1.85306         3.44817          1.3759 
         1.8592         3.42828         1.36494 
        1.86533         3.41427          1.3541 
        1.87147         3.40259         1.34337 
        1.87761         3.38006         1.33275 
        1.88375         3.36341         1.32226 
        1.88988         3.34414          1.3119 
        1.89601         3.32936         1.30164 
        1.90215         3.31301         1.29148 
        1.90829           3.291         1.28143 
        1.91442         3.28151         1.27149 
        1.92056         3.25969         1.26167 
         1.9267         3.24548         1.25193 
        1.93284         3.23297          1.2423 
        1.93897         3.21672         1.23279 
        1.94509          3.1963         1.22339 
        1.95123         3.18024         1.21407 
        1.95737         3.16095         1.20484 
        1.96349         3.15319         1.19573 
        1.96964         3.14279         1.18669 
        1.97578          3.1165         1.17774 
        1.98192         3.10836          1.1689 
        1.98805         3.09503         1.16015 
        1.99419          3.0789         1.15149 
        2.00033         3.06857         1.14291 
        2.00647         3.04941         1.13442 
         2.0126         3.03989         1.12603 
        2.01874         3.01475         1.11772 
        2.02488         3.00898         1.10948 
        2.03101         2.98489         1.10134 
        2.03714         2.97618         1.09329 
        2.04328         2.96251         1.08532 
        2.04941         2.94144         1.07742 
        2.05554         2.93485         1.06962 
        2.06167         2.92496         1.06188 
        2.06781         2.90974         1.05421 
        2.07396         2.89953         1.04661 
        2.08009         2.88432          1.0391 
        2.08622         2.86758         1.03167 
        2.09237         2.85693          1.0243 
        2.09851         2.84459           1.017 
        2.10464         2.83538         1.00978 
        2.11077         2.81819         1.00265 
        2.11691         2.80644        0.995561 
        2.12305         2.79708        0.988545 
        2.12918         2.78837        0.981613 
        2.13531         2.77357        0.974747 
        2.14145         2.76077         0.96793 
         2.1476         2.74365        0.961171 
        2.15372         2.73287        0.954511 
        2.15985         2.72498        0.947907 
        2.16599         2.71157        0.941346 
        2.17213         2.69478        0.934855 
        2.17827          2.6885        0.928427 
         2.1844         2.67541        0.922064 
        2.19054         2.66742         0.91576 
        2.19666         2.65221        0.909523 
         2.2028          2.6397        0.903339 
        2.20893         2.63099        0.897209 
        2.21508          2.6169         0.89113 
        2.22122         2.60599        0.885105 
        2.22736         2.59597        0.879149 
        2.23349         2.58811        0.873248 
        2.23962         2.57376        0.867399 
        2.24577          2.5656        0.861599 
         2.2519         2.55511        0.855859 
        2.25802         2.54565        0.850182 
        2.26417         2.53694         0.84454 
        2.27031         2.52249        0.838944 
        2.27644         2.51362        0.833415 
        2.28257         2.50002        0.827937 
        2.28872         2.49537        0.822497 
        2.29486         2.48051        0.817108 
        2.30099         2.47012        0.811778 
        2.30712         2.45885        0.806493 
        2.31326          2.4508        0.801247 
         2.3194         2.44211         0.79605 
        2.32553         2.43191        0.790908 
        2.33166         2.42437        0.785814 
         2.3378         2.41389        0.780758 
        2.34394         2.40368        0.775745 
        2.35007         2.39317        0.770783 
        2.35619         2.38705         0.76587 
        2.36233         2.37696        0.760989 
        2.36848         2.36458         0.75614 
        2.37462         2.35937        0.751344 
        2.38075          2.3472        0.746594 
        2.38689         2.34175        0.741881 
        2.39303         2.33039         0.73721 
        2.39916         2.32154        0.732583 
        2.40529         2.31272        0.727997 
        2.41143         2.30272        0.723446 
        2.41757         2.29388        0.718933 
         2.4237         2.28816        0.714466 
        2.42983         2.27005        0.710038 
        2.43598          2.2719        0.705635 
        2.44211          2.2571        0.701277 
        2.44823         2.25275        0.696966 
        2.45437         2.24136        0.692679 
        2.46052         2.23651        0.688424 
        2.46665         2.22746        0.684213 
        2.47279         2.21729        0.680039 
        2.47892         2.21097        0.675897 
        2.48507         2.20249        0.671785 
         2.4912         2.18829        0.667715 
