# k  (h/Mpc)    Pcb(k)  (Mpc/h)^3    Pcb_linear(k)  (Mpc/h)^3
     0.00783031         2169.01         2191.56 
       0.013688         2697.72         2697.19 
       0.019231         2721.33         2719.72 
      0.0249154         2483.66         2501.76 
      0.0312784         2150.52         2153.92 
      0.0375637         1832.02         1826.74 
      0.0433917         1583.78         1588.38 
      0.0492413         1419.42         1418.32 
      0.0555754         1284.56         1294.05 
      0.0619321         1208.76         1202.61 
       0.067871          1116.2         1122.92 
      0.0738098         1028.06         1034.82 
      0.0800417         921.503         930.946 
      0.0862327         820.275         823.854 
      0.0921407         729.244         728.811 
      0.0982031         645.772         647.365 
       0.104506         589.823         583.951 
       0.110769         545.389         540.672 
       0.116806         512.758           512.1 
       0.122832         492.546         489.617 
       0.129052         464.977         466.301 
       0.135211         438.051         439.141 
       0.141259         410.249         407.946 
       0.147318         379.036         374.341 
       0.153489         344.525         341.155 
       0.159709         317.106         311.995 
       0.165845         297.586         289.177 
       0.171974         277.958         272.313 
       0.178125          266.07         260.001 
       0.184229         256.754         250.306 
        0.19034         243.499         241.059 
       0.196428         236.025         230.839 
       0.202534         226.549         219.042 
       0.208729         212.362         205.876 
       0.214876           198.2         192.603 
       0.220989         188.548         180.283 
       0.227147         176.131         169.564 
        0.23329         167.736         160.865 
       0.239377         161.942         154.018 
       0.245482         153.786         148.392 
       0.251667         150.672         143.288 
       0.257832         145.439         138.194 
       0.263955          139.86         132.784 
       0.270079         134.178         126.974 
        0.27624         129.812          120.92 
       0.282372         123.997         115.017 
        0.28843         118.134         109.605 
       0.294538         113.118         104.772 
       0.300721          110.24         100.563 
        0.30691         105.388         96.9359 
       0.313033           102.3         93.7408 
       0.319153         97.7657         90.7292 
       0.325316          96.185         87.7162 
        0.33145         92.5558         84.6525 
       0.337538         90.1005         81.5506 
       0.343633         86.7122         78.4534 
       0.349808         83.9427         75.4201 
       0.355968         81.4035         72.5907 
       0.362074         78.6859         70.0235 
       0.368217         76.3476           67.69 
       0.374374          74.028         65.5577 
       0.380519           72.21         63.5765 
       0.386598         70.2754         61.7022 
       0.392688         68.7894         59.8578 
        0.39888         66.7544         57.9985 
       0.405048         65.0871         56.1648 
       0.411186         63.4708         54.3756 
       0.417313         61.3787         52.6568 
       0.423458         59.7953         51.0228 
       0.429607         58.1719         49.4866 
       0.435692         56.3251         48.0662 
       0.441815         55.4533         46.7231 
       0.447964         54.4968         45.4396 
       0.454126         52.2946         44.2013 
       0.460267         51.4313         43.0028 
       0.466387         49.9813         41.8339 
        0.47254         49.1858         40.6839 
       0.478662         48.3154         39.5727 
       0.484765         46.8677         38.5047 
       0.490885         45.8153         37.4774 
       0.497035         45.2049          36.491 
       0.503198          43.994         35.5497 
       0.509342         42.8662         34.6542 
       0.515458          42.019         33.7975 
       0.521598         41.3211         32.9655 
       0.527764         40.4679         32.1545 
       0.533884         39.7743         31.3726 
           0.54         38.9109         30.6137 
       0.546137         38.3061          29.874 
       0.552299          37.685         29.1545 
       0.558452          36.529         28.4608 
       0.564573         35.9843         27.7961 
       0.570708          35.423          27.155 
       0.576825         34.5764         26.5388 
       0.582926         33.9175         25.9443 
       0.589034         33.0601          25.367 
       0.595184          32.642         24.8025 
       0.601379         32.0517         24.2502 
       0.607522         31.4439         23.7186 
       0.613639         31.1556         23.2049 
       0.619772         30.3448         22.7053 
       0.625918         30.1822         22.2196 
       0.632068         29.6846         21.7482 
       0.638161         29.0708         21.2951 
         0.6443         28.5044          20.852 
       0.650464         28.0117         20.4204 
       0.656582         27.8269         20.0045 
       0.662703         27.2904         19.6003 
       0.668861         26.7983         19.2052 
       0.675024         26.3364         18.8207 
       0.681124         25.8812         18.4506 
       0.687237         25.4562         18.0896 
       0.693381         25.2366         17.7365 
       0.699536         24.5924         17.3922 
       0.705665         24.5226         17.0586 
       0.711789         23.9826         16.7341 
       0.717957         23.6646         16.4159 
        0.72409          23.315         16.1079 
       0.730186         22.9872         15.8098 
       0.736317         22.7495         15.5178 
       0.742472         22.3556         15.2322 
       0.748622         22.1271         14.9542 
        0.75476         21.7318         14.6837 
       0.760888         21.4295         14.4205 
       0.767043         21.1805         14.1627 
       0.773185         20.7995         13.9117 
       0.779291         20.6918         13.6684 
       0.785407          20.432         13.4305 
       0.791564         20.0687         13.1969 
       0.797719         19.6447         12.9689 
       0.803834         19.6125         12.7479 
       0.809972         19.4308         12.5312 
       0.816124         18.9839         12.3192 
       0.822261         18.8105         12.1126 
       0.828378         18.6108         11.9115 
       0.834502         18.4341         11.7148 
       0.840667          18.178         11.5213 
       0.846816         17.8594         11.3328 
       0.852925         17.6948         11.1497 
       0.859047         17.4993         10.9703 
       0.865192         17.3357         10.7943 
       0.871341          17.197          10.622 
       0.877463         16.8842         10.4544 
       0.883569         16.6768         10.2908 
       0.889708         16.4334         10.1299 
       0.895864         16.3127         9.97203 
       0.902008         16.1855          9.8179 
       0.908149         16.0067         9.66715 
       0.914301         15.8886         9.51934 
       0.920448         15.5878         9.37479 
       0.926574         15.4541         9.23377 
       0.932687          15.293         9.09597 
       0.938823         15.0905          8.9605 
       0.944975          14.924         8.82751 
       0.951105         14.7958         8.69772 
       0.957225         14.6657         8.57077 
       0.963368         14.5253         8.44595 
       0.969511         14.3923         8.32362 
       0.975621         14.2528         8.20439 
       0.981748         14.0706         8.08721 
       0.987916         13.9816         7.97159 
        0.99406         13.7848         7.85868 
        1.00019         13.5904         7.74819 
        1.00632         13.5628         7.63995 
        1.01246         13.4199         7.53363 
        1.01859         13.2138         7.42951 
        1.02471          13.158         7.32751 
        1.03085          13.027         7.22709 
        1.03698         12.8292         7.12877 
        1.04314          12.762         7.03188 
        1.04929         12.5983         6.93703 
        1.05541         12.4652         6.84432 
        1.06154         12.3827         6.75308 
        1.06769         12.3207         6.66339 
        1.07382          12.148         6.57562 
        1.07993          12.065         6.48964 
        1.08607         11.9471         6.40485 
        1.09222         11.8559          6.3215 
        1.09836         11.7159         6.23974 
        1.10449         11.6295         6.15953 
        1.11063          11.511         6.08064 
        1.11677         11.4589         6.00317 
         1.1229         11.3815          5.9272 
        1.12903         11.2369         5.85248 
        1.13518         11.1047           5.779 
        1.14131         11.0443         5.70682 
        1.14745         10.9486         5.63593 
        1.15359         10.8758         5.56623 
        1.15973         10.7782         5.49769 
        1.16584         10.6225         5.43062 
        1.17197          10.572         5.36458 
        1.17811         10.5133         5.29944 
        1.18424          10.418         5.23557 
        1.19038         10.3735         5.17258 
        1.19652         10.2573         5.11065 
        1.20267         10.1564         5.04975 
        1.20881         10.1299         4.98985 
        1.21495         10.0457         4.93102 
        1.22108         9.92585         4.87315 
         1.2272         9.86077         4.81636 
        1.23334         9.76466         4.76034 
        1.23949         9.68177         4.70508 
        1.24562         9.64357         4.65086 
        1.25174         9.57167         4.59758 
        1.25789         9.49884         4.54498 
        1.26402         9.45329          4.4933 
        1.27014         9.36942         4.44255 
        1.27628         9.25271         4.39244 
        1.28244         9.18468         4.34301 
        1.28858         9.17915         4.29441 
        1.29471         9.07458         4.24667 
        1.30084         8.98721          4.1997 
        1.30697         8.97598         4.15338 
        1.31312         8.84496         4.10769 
        1.31925         8.78856         4.06284 
        1.32537         8.74285          4.0187 
        1.33151         8.69836         3.97506 
        1.33765         8.61808          3.9321 
        1.34378         8.55397         3.88986 
        1.34992         8.49218         3.84821 
        1.35606         8.44162         3.80709 
         1.3622         8.39217         3.76664 
        1.36833         8.31815         3.72688 
        1.37445         8.27399         3.68771 
        1.38059         8.23978         3.64899 
        1.38675         8.16194         3.61073 
        1.39288         8.12581         3.57318 
        1.39901          8.0356         3.53618 
        1.40515         8.00232         3.49962 
         1.4113         7.95109          3.4636 
        1.41742         7.89646         3.42822 
        1.42355         7.82891         3.39327 
         1.4297         7.78791         3.35871 
        1.43585         7.75601         3.32464 
        1.44198         7.71809         3.29118 
        1.44809         7.65105         3.25825 
        1.45423         7.59317         3.22564 
        1.46036         7.54348         3.19354 
        1.46649         7.50432         3.16187 
        1.47263          7.4371         3.13061 
        1.47877         7.39618         3.09978 
        1.48491         7.35735         3.06932 
        1.49104         7.31043         3.03934 
        1.49718          7.2726         3.00973 
        1.50333         7.23083         2.98047 
        1.50947         7.17496         2.95167 
         1.5156          7.1375         2.92328 
        1.52172         7.10109         2.89527 
        1.52787         7.05272         2.86758 
          1.534         7.00117         2.84028 
        1.54013         6.97195         2.81336 
        1.54627         6.91162         2.78674 
        1.55241         6.88092         2.76047 
        1.55855         6.85276         2.73457 
        1.56467         6.79796         2.70908 
         1.5708          6.7776         2.68384 
        1.57695         6.71515         2.65889 
        1.58308         6.67126         2.63431 
        1.58922         6.65414         2.61003 
        1.59535         6.62355         2.58606 
         1.6015         6.56638         2.56236 
        1.60764         6.52056         2.53897 
        1.61376         6.50225         2.51594 
        1.61989          6.4638         2.49318 
        1.62604         6.42055         2.47065 
        1.63218         6.40477         2.44841 
        1.63831         6.36475          2.4265 
        1.64444         6.33084         2.40485 
        1.65059         6.26344         2.38341 
        1.65673         6.26533         2.36226 
        1.66285         6.19979         2.34142 
        1.66898         6.17517         2.32083 
        1.67512         6.14752         2.30045 
        1.68127         6.10956          2.2803 
         1.6874         6.08984         2.26043 
        1.69353         6.04014         2.24081 
        1.69967         6.01542         2.22138 
        1.70581         5.98653         2.20218 
        1.71193         5.94832         2.18329 
        1.71806         5.93091         2.16458 
        1.72421         5.88682         2.14605 
        1.73035         5.87109         2.12776 
        1.73649           5.837         2.10968 
        1.74262         5.79756         2.09183 
        1.74876         5.77931         2.07418 
        1.75489         5.75317         2.05677 
        1.76101         5.70649         2.03956 
        1.76715         5.69074         2.02253 
        1.77329         5.65739         2.00567 
        1.77943         5.61514         1.98899 
        1.78557         5.60793         1.97254 
        1.79171         5.57229         1.95626 
        1.79785         5.54086         1.94017 
        1.80399         5.50804         1.92426 
        1.81012         5.48875         1.90855 
        1.81625         5.45944         1.89302 
        1.82239         5.43823         1.87765 
        1.82853         5.40541         1.86245 
        1.83466         5.38324         1.84744 
        1.84078         5.35781         1.83261 
        1.84692           5.347         1.81791 
        1.85306         5.30175         1.80337 
         1.8592         5.27143           1.789 
        1.86533         5.25252          1.7748 
        1.87147         5.23173         1.76073 
        1.87761         5.20402         1.74682 
        1.88375          5.1763         1.73307 
        1.88988         5.15529         1.71948 
        1.89601         5.13255         1.70603 
        1.90215         5.11068         1.69272 
        1.90829          5.0801         1.67955 
        1.91442          5.0596         1.66652 
        1.92056         5.03821         1.65365 
         1.9267         5.00713         1.64089 
        1.93284         4.98874         1.62826 
        1.93897         4.96272         1.61579 
        1.94509         4.94425         1.60348 
        1.95123         4.91803         1.59126 
        1.95737         4.88882         1.57917 
        1.96349         4.87759         1.56723 
        1.96964         4.85601         1.55538 
        1.97578         4.82355         1.54364 
        1.98192         4.81272         1.53206 
        1.98805         4.79239         1.52059 
        1.99419          4.7676         1.50923 
        2.00033         4.75568         1.49799 
        2.00647         4.72614         1.48687 
         2.0126         4.71227         1.47587 
        2.01874         4.68113         1.46498 
        2.02488         4.67122         1.45418 
        2.03101         4.63657         1.44351 
        2.03714         4.61815         1.43296 
        2.04328         4.59925         1.42251 
        2.04941         4.57377         1.41216 
        2.05554         4.55979         1.40193 
        2.06167         4.54359         1.39178 
        2.06781         4.52269         1.38174 
        2.07396         4.51189         1.37178 
        2.08009         4.48796         1.36193 
        2.08622         4.46292         1.35219 
        2.09237         4.44881         1.34253 
        2.09851         4.43383         1.33297 
        2.10464          4.4128         1.32351 
        2.11077          4.3864         1.31415 
        2.11691         4.37066         1.30487 
        2.12305         4.35839         1.29567 
        2.12918         4.34625         1.28658 
        2.13531         4.32482         1.27758 
        2.14145         4.30694         1.26865 
         2.1476         4.28234         1.25979 
        2.15372         4.26647         1.25106 
        2.15985         4.26331         1.24241 
        2.16599         4.23023         1.23381 
        2.17213         4.21747          1.2253 
        2.17827         4.20614         1.21687 
         2.1844         4.18335         1.20853 
        2.19054         4.16601         1.20027 
        2.19666         4.14782          1.1921 
         2.2028         4.13221         1.18399 
        2.20893         4.11953         1.17596 
        2.21508         4.09803         1.16799 
        2.22122         4.08149         1.16009 
        2.22736         4.06807         1.15228 
        2.23349          4.0606         1.14455 
        2.23962         4.03963         1.13688 
        2.24577         4.02078         1.12928 
         2.2519         4.01333         1.12176 
        2.25802         3.99039         1.11432 
        2.26417         3.97795         1.10692 
        2.27031         3.95922         1.09959 
        2.27644         3.94204         1.09234 
        2.28257         3.92696         1.08516 
        2.28872         3.92007         1.07803 
        2.29486         3.90033         1.07097 
        2.30099         3.88276         1.06398 
        2.30712         3.86901         1.05706 
        2.31326         3.84908         1.05018 
         2.3194         3.84133         1.04337 
        2.32553         3.82751         1.03663 
        2.33166         3.81719         1.02995 
         2.3378          3.7982         1.02333 
        2.34394         3.78557         1.01675 
        2.35007         3.76701         1.01025 
        2.35619         3.75986         1.00381 
        2.36233         3.74536        0.997415 
        2.36848         3.72507        0.991059 
        2.37462         3.72118        0.984773 
        2.38075         3.70326        0.978547 
        2.38689         3.69303         0.97237 
        2.39303         3.67581        0.966247 
        2.39916         3.66234        0.960183 
        2.40529         3.65001        0.954172 
        2.41143         3.63732        0.948208 
        2.41757         3.62878        0.942292 
         2.4237         3.61581        0.936437 
        2.42983         3.58794        0.930633 
        2.43598           3.586        0.924862 
        2.44211          3.5677        0.919151 
        2.44823         3.55985          0.9135 
        2.45437          3.5429        0.907881 
        2.46052         3.53578        0.902305 
        2.46665         3.52398        0.896785 
        2.47279         3.50866        0.891314 
        2.47892          3.4976        0.885885 
        2.48507         3.48645        0.880496 
         2.4912          3.4688        0.875162 
