# k  (h/Mpc)    Pcb(k)  (Mpc/h)^3    Pcb_linear(k)  (Mpc/h)^3
     0.00783031         13839.3         14035.2 
       0.013688         17404.6         17263.3 
       0.019231         17425.8           17398 
      0.0249154         15678.2         15997.1 
      0.0312784         13622.1         13769.1 
      0.0375637         11671.2         11675.7 
      0.0433917         9977.31         10151.1 
      0.0492413         8996.79         9063.34 
      0.0555754         8019.38         8268.64 
      0.0619321         7684.45         7683.95 
       0.067871         6972.62         7174.46 
      0.0738098          6426.7         6611.35 
      0.0800417         5724.63         5947.56 
      0.0862327         5142.97         5263.26 
      0.0921407         4642.98         4655.99 
      0.0982031          4113.1         4135.61 
       0.104506         3833.33         3730.44 
       0.110769         3543.53         3453.92 
       0.116806         3338.47         3271.37 
       0.122832         3192.52         3127.72 
       0.129052         2972.48         2978.75 
       0.135211         2813.68         2805.23 
       0.141259         2674.92         2605.95 
       0.147318         2499.43         2391.27 
       0.153489         2275.99         2179.27 
       0.159709         2138.26         1992.99 
       0.165845         2045.38         1847.22 
       0.171974         1929.78         1739.49 
       0.178125         1839.51         1660.84 
       0.184229         1765.97          1598.9 
        0.19034         1666.58         1539.83 
       0.196428         1633.57         1474.55 
       0.202534         1571.37         1399.19 
       0.208729         1492.35         1315.08 
       0.214876         1421.05          1230.3 
       0.220989          1368.8          1151.6 
       0.227147         1305.53         1083.13 
        0.23329         1252.57         1027.56 
       0.239377         1229.95         983.824 
       0.245482         1152.05         947.883 
       0.251667         1145.33         915.279 
       0.257832         1100.95         882.741 
       0.263955         1064.55         848.181 
       0.270079         1025.99         811.069 
        0.27624         1013.68         772.399 
       0.282372         970.651         734.692 
        0.28843         957.681         700.119 
       0.294538         909.012         669.248 
       0.300721         904.386          642.36 
        0.30691          866.29         619.192 
       0.313033          849.64         598.782 
       0.319153         830.719         579.545 
       0.325316         804.542         560.299 
        0.33145         784.456         540.729 
       0.337538         772.065         520.915 
       0.343633         751.449         501.131 
       0.349808         725.206         481.755 
       0.355968         720.359         463.682 
       0.362074         710.965         447.284 
       0.368217         689.828         432.378 
       0.374374         661.489         418.757 
       0.380519         660.798         406.102 
       0.386598         642.932          394.13 
       0.392688         640.601         382.348 
        0.39888         621.494         370.472 
       0.405048         611.178         358.759 
       0.411186         602.048          347.33 
       0.417313         589.827         336.351 
       0.423458         579.181         325.913 
       0.429607         570.392           316.1 
       0.435692         557.308         307.027 
       0.441815         552.715         298.448 
       0.447964         541.092          290.25 
       0.454126         531.922          282.34 
       0.460267         521.151         274.685 
       0.466387         515.295         267.218 
        0.47254         507.599         259.872 
       0.478662         505.201         252.774 
       0.484765         488.654         245.952 
       0.490885         484.879          239.39 
       0.497035         475.478         233.089 
       0.503198         470.555         227.077 
       0.509342         466.637         221.356 
       0.515458         462.446         215.884 
       0.521598         451.076          210.57 
       0.527764         443.241         205.389 
       0.533884         441.227         200.395 
           0.54         435.323         195.547 
       0.546137         433.264         190.823 
       0.552299         425.134         186.227 
       0.558452         422.923         181.795 
       0.564573         416.866          177.55 
       0.570708         410.616         173.455 
       0.576825         401.074         169.518 
       0.582926         400.335         165.721 
       0.589034         396.821         162.034 
       0.595184         393.302         158.428 
       0.601379         387.595           154.9 
       0.607522         382.061         151.504 
       0.613639         380.897         148.223 
       0.619772         372.125         145.032 
       0.625918         371.019          141.93 
       0.632068          365.19         138.918 
       0.638161         363.832         136.024 
         0.6443          357.54         133.194 
       0.650464         354.807         130.437 
       0.656582         352.495          127.78 
       0.662703         351.155         125.198 
       0.668861         344.912         122.674 
       0.675024         341.686         120.219 
       0.681124         339.294         117.854 
       0.687237         336.027         115.549 
       0.693381         331.238         113.293 
       0.699536         327.616         111.094 
       0.705665         325.474         108.963 
       0.711789         323.531          106.89 
       0.717957         320.985         104.858 
        0.72409         318.185          102.89 
       0.730186         314.464         100.986 
       0.736317         311.392         99.1211 
       0.742472         309.873         97.2968 
       0.748622          306.75         95.5208 
        0.75476         303.545         93.7934 
       0.760888         300.199         92.1117 
       0.767043         300.602          90.465 
       0.773185          296.77         88.8622 
       0.779291         292.203         87.3076 
       0.785407         291.531         85.7883 
       0.791564         288.029         84.2958 
       0.797719          285.55         82.8399 
       0.803834         283.278         81.4279 
       0.809972         282.302          80.044 
       0.816124         281.797         78.6895 
       0.822261         277.911         77.3703 
       0.828378         275.773         76.0855 
       0.834502         274.037         74.8291 
       0.840667         271.148         73.5931 
       0.846816         269.618         72.3888 
       0.852925         268.052         71.2192 
       0.859047          266.02         70.0733 
       0.865192         262.941          68.949 
       0.871341         261.026         67.8489 
       0.877463         259.697         66.7779 
       0.883569         258.523          65.733 
       0.889708         255.749         64.7052 
       0.895864         253.307          63.697 
       0.902008         252.024         62.7125 
       0.908149         250.689         61.7495 
       0.914301         247.595         60.8054 
       0.920448         246.173         59.8821 
       0.926574         243.968         58.9813 
       0.932687         244.157         58.1011 
       0.938823         241.218         57.2358 
       0.944975         240.063         56.3863 
       0.951105         238.525         55.5572 
       0.957225         236.747         54.7463 
       0.963368         233.728          53.949 
       0.969511          232.81         53.1677 
       0.975621         230.667         52.4061 
       0.981748         230.671         51.6575 
       0.987916         228.593          50.919 
        0.99406         225.789         50.1978 
        1.00019         225.747         49.4921 
        1.00632         224.014         48.8006 
        1.01246         222.221         48.1215 
        1.01859         222.314         47.4565 
        1.02471         219.002         46.8049 
        1.03085         217.292         46.1635 
        1.03698          216.48         45.5355 
        1.04314         214.407         44.9166 
        1.04929         213.166         44.3107 
        1.05541         213.371         43.7185 
        1.06154         210.434         43.1357 
        1.06769         210.163         42.5628 
        1.07382         208.481         42.0022 
        1.07993         206.825          41.453 
        1.08607         206.265         40.9114 
        1.09222         204.861          40.379 
        1.09836         203.244         39.8567 
        1.10449         201.149         39.3443 
        1.11063         199.524         38.8405 
        1.11677         199.251         38.3456 
         1.1229         197.686         37.8603 
        1.12903         196.716         37.3831 
        1.13518         195.487         36.9137 
        1.14131         193.762         36.4527 
        1.14745         193.692         35.9998 
        1.15359         192.008         35.5546 
        1.15973         190.764         35.1168 
        1.16584         189.176         34.6884 
        1.17197         188.925         34.2666 
        1.17811         187.112         33.8505 
        1.18424         186.146         33.4425 
        1.19038         185.659         33.0402 
        1.19652         184.125         32.6446 
        1.20267         183.569         32.2556 
        1.20881         181.865          31.873 
        1.21495         180.972         31.4972 
        1.22108         179.886         31.1276 
         1.2272         178.473         30.7648 
        1.23334           177.9         30.4069 
        1.23949         176.571          30.054 
        1.24562         175.712         29.7077 
        1.25174         174.262         29.3673 
        1.25789         173.153         29.0313 
        1.26402          171.96         28.7012 
        1.27014         170.761         28.3771 
        1.27628         170.225          28.057 
        1.28244         169.964         27.7412 
        1.28858         168.195         27.4308 
        1.29471         166.778         27.1259 
        1.30084         166.428         26.8259 
        1.30697         165.006           26.53 
        1.31312         164.055         26.2381 
        1.31925         163.288         25.9516 
        1.32537         162.528         25.6697 
        1.33151         160.941         25.3909 
        1.33765         160.232         25.1165 
        1.34378         159.554         24.8467 
        1.34992          158.84         24.5807 
        1.35606         158.567          24.318 
         1.3622         156.913         24.0596 
        1.36833          155.56         23.8056 
        1.37445         154.948         23.5555 
        1.38059         153.951         23.3081 
        1.38675          153.36         23.0638 
        1.39288         152.549         22.8239 
        1.39901         152.296         22.5876 
        1.40515         150.599          22.354 
         1.4113         149.744         22.1239 
        1.41742         148.867          21.898 
        1.42355         148.075         21.6747 
         1.4297         147.247          21.454 
        1.43585         146.295         21.2364 
        1.44198         145.641         21.0226 
        1.44809         144.982         20.8122 
        1.45423         144.144          20.604 
        1.46036         143.162         20.3989 
        1.46649         142.204         20.1966 
        1.47263         141.429         19.9969 
        1.47877         140.815            19.8 
        1.48491         139.376         19.6055 
        1.49104         139.368         19.4139 
        1.49718         137.986         19.2248 
        1.50333         137.481         19.0379 
        1.50947         136.904         18.8539 
         1.5156         135.951         18.6726 
        1.52172         135.178         18.4937 
        1.52787          134.23         18.3168 
          1.534         133.736         18.1424 
        1.54013         132.898         17.9705 
        1.54627         132.278         17.8005 
        1.55241         131.278         17.6327 
        1.55855         130.522         17.4672 
        1.56467         129.996         17.3044 
         1.5708          129.07         17.1432 
        1.57695         128.609         16.9838 
        1.58308         127.922         16.8268 
        1.58922         127.393         16.6717 
        1.59535          126.38         16.5186 
         1.6015         125.948         16.3672 
        1.60764          125.23         16.2178 
        1.61376         124.524         16.0707 
        1.61989         123.703         15.9253 
        1.62604         123.014         15.7814 
        1.63218         122.617         15.6394 
        1.63831         121.657         15.4994 
        1.64444         121.234         15.3611 
        1.65059         120.637         15.2242 
        1.65673           119.5         15.0891 
        1.66285         119.253          14.956 
        1.66898         118.569         14.8245 
        1.67512         118.121         14.6943 
        1.68127         117.177         14.5655 
         1.6874         116.274         14.4386 
        1.69353         116.025         14.3133 
        1.69967         115.471         14.1892 
        1.70581         114.714         14.0666 
        1.71193         114.171         13.9459 
        1.71806         113.576         13.8264 
        1.72421          112.79          13.708 
        1.73035          112.65         13.5912 
        1.73649         111.783         13.4757 
        1.74262         111.007         13.3617 
        1.74876         110.725         13.2489 
        1.75489         109.818         13.1377 
        1.76101         109.199         13.0278 
        1.76715         108.626          12.919 
        1.77329         108.358         12.8113 
        1.77943         107.386         12.7048 
        1.78557         107.028         12.5997 
        1.79171         106.229         12.4957 
        1.79785         105.749         12.3929 
        1.80399         105.078         12.2913 
        1.81012         104.657          12.191 
        1.81625         104.112         12.0918 
        1.82239         103.799         11.9936 
        1.82853         103.074         11.8965 
        1.83466          102.35         11.8006 
        1.84078          102.07         11.7059 
        1.84692         101.278          11.612 
        1.85306         100.894         11.5191 
         1.8592         100.362         11.4273 
        1.86533         99.5706         11.3366 
        1.87147         99.2084         11.2468 
        1.87761         98.6669         11.1579 
        1.88375         97.9543         11.0701 
        1.88988         97.6129         10.9833 
        1.89601         97.0182         10.8974 
        1.90215         96.5482         10.8123 
        1.90829          96.011         10.7282 
        1.91442         95.5826          10.645 
        1.92056         94.9331         10.5628 
         1.9267         94.6401         10.4813 
        1.93284         94.1074         10.4006 
        1.93897         93.5648          10.321 
        1.94509          93.188         10.2423 
        1.95123         92.6465         10.1643 
        1.95737         92.1144          10.087 
        1.96349         91.6109         10.0108 
        1.96964         90.9576         9.93506 
        1.97578         90.5666         9.86011 
        1.98192         90.3895         9.78609 
        1.98805         89.5501         9.71283 
        1.99419         89.3249         9.64031 
        2.00033         88.8404          9.5685 
        2.00647         88.3623         9.49744 
         2.0126         87.8638         9.42723 
        2.01874         87.2515         9.35762 
        2.02488          86.876         9.28866 
        2.03101         86.3166         9.22052 
        2.03714         85.8056         9.15312 
        2.04328         85.5364         9.08633 
        2.04941         85.1165         9.02026 
        2.05554         84.6629          8.9549 
        2.06167         84.2115          8.8901 
        2.06781         83.6554         8.82593 
        2.07396         83.2655          8.7623 
        2.08009         82.9997         8.69941 
        2.08622         82.4505         8.63722 
        2.09237         82.0137         8.57551 
        2.09851         81.7019         8.51439 
        2.10464         81.1539         8.45397 
        2.11077         80.8483         8.39421 
        2.11691         80.5178          8.3349 
        2.12305         79.8509         8.27616 
        2.12918         79.4572         8.21812 
        2.13531         79.2164         8.16064 
        2.14145         78.5111         8.10357 
         2.1476         78.1596         8.04698 
        2.15372         77.9006         7.99122 
        2.15985         77.4687         7.93593 
        2.16599          77.058         7.88101 
        2.17213         76.6728         7.82666 
        2.17827         76.2445         7.77284 
         2.1844         75.8169         7.71958 
        2.19054         75.6654         7.66679 
        2.19666         75.1245         7.61458 
         2.2028         74.9102         7.56281 
        2.20893         74.3502         7.51149 
        2.21508         74.0088         7.46059 
        2.22122         73.6158         7.41015 
        2.22736          73.278         7.36028 
        2.23349         72.8816         7.31088 
        2.23962         72.4867         7.26191 
        2.24577         72.1808         7.21335 
         2.2519         71.8623          7.1653 
        2.25802         71.4741         7.11777 
        2.26417         70.9881         7.07053 
        2.27031         70.7525         7.02368 
        2.27644         70.3169          6.9774 
        2.28257         69.9307         6.93153 
        2.28872          69.594         6.88599 
        2.29486         69.0668         6.84087 
        2.30099         68.7547         6.79625 
        2.30712         68.5945           6.752 
        2.31326         68.2848         6.70808 
         2.3194         67.8588         6.66457 
        2.32553           67.49         6.62153 
        2.33166         67.1766         6.57888 
         2.3378         66.6817         6.53655 
        2.34394         66.4735         6.49458 
        2.35007         66.0989         6.45303 
        2.35619          65.799         6.41191 
        2.36233         65.4891         6.37104 
        2.36848         65.1624         6.33045 
        2.37462         64.7005         6.29029 
        2.38075         64.5737         6.25052 
        2.38689         64.1534         6.21107 
        2.39303         63.8192         6.17196 
        2.39916         63.4711         6.13322 
        2.40529         63.2924         6.09482 
        2.41143         62.8993         6.05673 
        2.41757         62.5758         6.01894 
         2.4237         62.3821         5.98154 
        2.42983         61.9365         5.94447 
        2.43598         61.6211         5.90761 
        2.44211         61.3529         5.87112 
        2.44823         61.0658         5.83503 
        2.45437         60.6353         5.79914 
        2.46052         60.4106         5.76352 
        2.46665         60.1898         5.72827 
        2.47279         59.7568         5.69332 
        2.47892           59.55         5.65864 
        2.48507         59.1895         5.62422 
         2.4912         58.9372         5.59014 
