# k  (h/Mpc)    Pcb(k)  (Mpc/h)^3    Pcb_linear(k)  (Mpc/h)^3
     0.00783031         846.386         854.507 
       0.013688         1049.68         1051.83 
       0.019231         1060.61         1060.79 
      0.0249154         971.148         975.927 
      0.0312784         839.921         840.337 
      0.0375637         714.607         712.738 
      0.0433917         619.308          619.76 
      0.0492413         554.244         553.415 
      0.0555754         503.111         504.938 
      0.0619321         471.135         469.267 
       0.067871         436.808         438.176 
      0.0738098         402.373         403.801 
      0.0800417         361.204         363.272 
      0.0862327         320.896         321.485 
      0.0921407          284.58         284.398 
      0.0982031         252.298         252.617 
       0.104506         229.305         227.872 
       0.110769         212.093         210.984 
       0.116806         199.766         199.836 
       0.122832         191.656         191.062 
       0.129052         181.546         181.964 
       0.135211          170.92         171.366 
       0.141259         159.552         159.193 
       0.147318         147.079         146.079 
       0.153489         133.773         133.129 
       0.159709         122.651          121.75 
       0.165845         114.608         112.846 
       0.171974         107.162         106.265 
       0.178125         102.511         101.461 
       0.184229         98.8808         97.6774 
        0.19034         94.3485          94.069 
       0.196428         90.9565         90.0812 
       0.202534         86.9901         85.4775 
       0.208729         81.5037         80.3395 
       0.214876         76.0528         75.1601 
       0.220989         71.9338         70.3525 
       0.227147         67.2078         66.1696 
        0.23329         63.8642         62.7752 
       0.239377         61.3909         60.1033 
       0.245482         58.7288         57.9077 
       0.251667         57.2266         55.9159 
       0.257832         55.1251         53.9282 
       0.263955         53.0382         51.8169 
       0.270079         50.8084         49.5497 
        0.27624         48.8259         47.1874 
       0.282372         46.5469         44.8838 
        0.28843         44.2442         42.7717 
       0.294538         42.3558         40.8857 
       0.300721         41.0099         39.2431 
        0.30691         39.2794         37.8278 
       0.313033         38.0587         36.5809 
       0.319153         36.4634         35.4057 
       0.325316         35.8001           34.23 
        0.33145         34.4789         33.0344 
       0.337538           33.33         31.8239 
       0.343633         32.0214         30.6153 
       0.349808          30.963         29.4316 
       0.355968         29.8844         28.3275 
       0.362074         28.8366         27.3257 
       0.368217         27.9456          26.415 
       0.374374         27.0039         25.5829 
       0.380519          26.323         24.8098 
       0.386598         25.6201         24.0784 
       0.392688         24.9888         23.3586 
        0.39888         24.1987         22.6331 
       0.405048         23.5345         21.9175 
       0.411186         22.8743         21.2193 
       0.417313         22.0862         20.5486 
       0.423458          21.487         19.9109 
       0.429607         20.8365         19.3114 
       0.435692         20.2325         18.7571 
       0.441815         19.7633          18.233 
       0.447964         19.3781         17.7322 
       0.454126         18.7001         17.2489 
       0.460267         18.2899         16.7813 
       0.466387         17.7265         16.3251 
        0.47254         17.3793         15.8763 
       0.478662         17.0041         15.4427 
       0.484765         16.4885         15.0259 
       0.490885         16.0828          14.625 
       0.497035         15.8407         14.2401 
       0.503198         15.4016         13.8728 
       0.509342         15.0279         13.5233 
       0.515458         14.6642          13.189 
       0.521598         14.3663         12.8643 
       0.527764         14.0081         12.5478 
       0.533884         13.7625         12.2427 
           0.54         13.4377         11.9466 
       0.546137         13.1713         11.6579 
       0.552299         12.9081         11.3771 
       0.558452         12.5226         11.1064 
       0.564573         12.3329         10.8471 
       0.570708         12.0799         10.5969 
       0.576825         11.7685         10.3564 
       0.582926         11.5617         10.1244 
       0.589034         11.2385         9.89913 
       0.595184         11.0593         9.67881 
       0.601379         10.8175          9.4633 
       0.607522         10.6538         9.25586 
       0.613639         10.5002          9.0554 
       0.619772         10.2129         8.86043 
       0.625918         10.1012         8.67091 
       0.632068         9.93369         8.48695 
       0.638161         9.69162          8.3101 
         0.6443         9.49265          8.1372 
       0.650464          9.2948         7.96877 
       0.656582         9.20198         7.80647 
       0.662703         9.02705         7.64875 
       0.668861         8.86819         7.49456 
       0.675024         8.68344         7.34452 
       0.681124          8.5246         7.20008 
       0.687237         8.39759         7.05921 
       0.693381         8.26864         6.92142 
       0.699536         8.04564         6.78707 
       0.705665         7.94699         6.65687 
       0.711789         7.81541         6.53023 
       0.717957         7.67718         6.40607 
        0.72409         7.54522         6.28589 
       0.730186         7.43367         6.16957 
       0.736317         7.35458         6.05561 
       0.742472          7.2325         5.94416 
       0.748622         7.10158         5.83566 
        0.75476         6.95426         5.73013 
       0.760888         6.86316         5.62739 
       0.767043         6.77992         5.52678 
       0.773185         6.63816         5.42887 
       0.779291         6.57381         5.33389 
       0.785407         6.46368         5.24107 
       0.791564         6.36557         5.14989 
       0.797719         6.26124         5.06095 
       0.803834         6.20102         4.97468 
       0.809972         6.12173         4.89013 
       0.816124         5.99764         4.80739 
       0.822261         5.89695         4.72679 
       0.828378         5.82543          4.6483 
       0.834502         5.77229         4.57154 
       0.840667         5.65425         4.49603 
       0.846816         5.56373         4.42246 
       0.852925         5.51569           4.351 
       0.859047         5.43817           4.281 
       0.865192         5.37704         4.21231 
       0.871341         5.31244          4.1451 
       0.877463         5.23367         4.07967 
       0.883569         5.14235         4.01583 
       0.889708         5.06309         3.95305 
       0.895864         5.00982         3.89145 
       0.902008         4.94098          3.8313 
       0.908149         4.88804         3.77247 
       0.914301         4.80343         3.71479 
       0.920448         4.74135         3.65838 
       0.926574         4.67608         3.60335 
       0.932687         4.62825         3.54958 
       0.938823         4.57263         3.49671 
       0.944975         4.51084         3.44482 
       0.951105         4.46244         3.39416 
       0.957225         4.43567         3.34463 
       0.963368         4.36872         3.29591 
       0.969511         4.30819         3.24818 
       0.975621         4.24707         3.20165 
       0.981748         4.20655         3.15592 
       0.987916         4.15623          3.1108 
        0.99406         4.08701         3.06674 
        1.00019         4.04182         3.02363 
        1.00632         4.00643         2.98138 
        1.01246         3.96048         2.93989 
        1.01859         3.91144         2.89927 
        1.02471         3.86473         2.85946 
        1.03085          3.8222         2.82027 
        1.03698         3.77113         2.78191 
        1.04314         3.73865         2.74409 
        1.04929         3.69011         2.70708 
        1.05541         3.64833          2.6709 
        1.06154         3.61215          2.6353 
        1.06769         3.58457          2.6003 
        1.07382          3.5301         2.56605 
        1.07993         3.48468         2.53249 
        1.08607         3.46634         2.49941 
        1.09222         3.42192         2.46688 
        1.09836         3.39291         2.43497 
        1.10449         3.35436         2.40367 
        1.11063         3.31323         2.37289 
        1.11677         3.28254         2.34266 
         1.1229         3.24795         2.31301 
        1.12903         3.20848         2.28385 
        1.13518         3.18164         2.25517 
        1.14131           3.137         2.22701 
        1.14745          3.0932         2.19934 
        1.15359         3.07826         2.17215 
        1.15973         3.03602          2.1454 
        1.16584         3.01685         2.11922 
        1.17197         2.98475         2.09345 
        1.17811         2.95937         2.06803 
        1.18424         2.93473         2.04311 
        1.19038         2.90425         2.01853 
        1.19652         2.87411         1.99436 
        1.20267         2.84829         1.97059 
        1.20881         2.81655         1.94722 
        1.21495         2.79406         1.92426 
        1.22108         2.76689         1.90168 
         1.2272         2.74911         1.87952 
        1.23334         2.71243         1.85766 
        1.23949         2.68395         1.83609 
        1.24562         2.66876         1.81494 
        1.25174         2.63574         1.79414 
        1.25789         2.61583         1.77362 
        1.26402         2.58542         1.75345 
        1.27014          2.5619         1.73365 
        1.27628         2.54961         1.71409 
        1.28244         2.51486          1.6948 
        1.28858         2.49894         1.67584 
        1.29471         2.47182         1.65721 
        1.30084         2.44731         1.63888 
        1.30697         2.43733          1.6208 
        1.31312         2.39651         1.60297 
        1.31925         2.38653         1.58547 
        1.32537         2.36452         1.56824 
        1.33151          2.3487         1.55121 
        1.33765         2.31912         1.53445 
        1.34378         2.30011         1.51796 
        1.34992         2.29075         1.50171 
        1.35606         2.25731         1.48566 
         1.3622         2.24812         1.46988 
        1.36833         2.22668         1.45436 
        1.37445         2.20488         1.43908 
        1.38059         2.19168         1.42397 
        1.38675          2.1808         1.40904 
        1.39288         2.15346         1.39438 
        1.39901         2.13307         1.37995 
        1.40515         2.11766         1.36568 
         1.4113         2.10182         1.35162 
        1.41742         2.08545         1.33782 
        1.42355         2.07447         1.32418 
         1.4297         2.04871         1.31069 
        1.43585         2.03822          1.2974 
        1.44198         2.02583         1.28434 
        1.44809         2.00041         1.27149 
        1.45423         1.98595         1.25876 
        1.46036         1.96973         1.24624 
        1.46649         1.95428         1.23388 
        1.47263         1.93802         1.22168 
        1.47877         1.91974         1.20965 
        1.48491         1.90617         1.19776 
        1.49104         1.89499         1.18606 
        1.49718         1.88227         1.17451 
        1.50333         1.86483         1.16309 
        1.50947         1.85377         1.15185 
         1.5156          1.8377         1.14077 
        1.52172          1.8238         1.12984 
        1.52787           1.809         1.11903 
          1.534         1.79764         1.10838 
        1.54013         1.78199         1.09788 
        1.54627         1.76614         1.08749 
        1.55241         1.75271         1.07724 
        1.55855         1.74344         1.06713 
        1.56467         1.73182         1.05718 
         1.5708         1.71299         1.04733 
        1.57695         1.70531         1.03759 
        1.58308         1.69245           1.028 
        1.58922         1.68117         1.01853 
        1.59535         1.66881         1.00917 
         1.6015           1.657        0.999927 
        1.60764         1.64732          0.9908 
        1.61376         1.63502        0.981813 
        1.61989         1.62201         0.97293 
        1.62604         1.60882        0.964137 
        1.63218         1.60395        0.955459 
        1.63831         1.58617        0.946909 
        1.64444         1.57523         0.93846 
        1.65059         1.56834        0.930094 
        1.65673         1.55519         0.92184 
        1.66285         1.54362        0.913709 
        1.66898         1.53652        0.905674 
        1.67512         1.52125         0.89772 
        1.68127         1.51181        0.889855 
         1.6874         1.50612        0.882102 
        1.69353         1.48897        0.874445 
        1.69967         1.47969        0.866862 
        1.70581          1.4761        0.859372 
        1.71193         1.46237        0.851999 
        1.71806         1.45634        0.844697 
        1.72421         1.44478        0.837466 
        1.73035         1.43387        0.830328 
        1.73649         1.42582        0.823275 
        1.74262          1.4165         0.81631 
        1.74876         1.40826        0.809421 
        1.75489         1.39449        0.802626 
        1.76101         1.38718        0.795911 
        1.76715         1.37942        0.789264 
        1.77329         1.37145        0.782685 
        1.77943         1.35969        0.776178 
        1.78557         1.35129        0.769755 
        1.79171         1.34708        0.763404 
        1.79785         1.33498        0.757124 
        1.80399         1.32798        0.750916 
        1.81012         1.32178        0.744786 
        1.81625         1.31062        0.738727 
        1.82239         1.30269        0.732727 
        1.82853         1.29007        0.726797 
        1.83466         1.28652        0.720938 
        1.84078         1.27717         0.71515 
        1.84692         1.27207        0.709417 
        1.85306         1.26223        0.703739 
         1.8592         1.25601        0.698133 
        1.86533          1.2467        0.692591 
        1.87147         1.24101        0.687103 
        1.87761         1.23288        0.681672 
        1.88375         1.22219        0.676306 
        1.88988         1.21888        0.671004 
        1.89601         1.20969        0.665756 
        1.90215         1.20123         0.66056 
        1.90829         1.19324        0.655422 
        1.91442         1.18779        0.650338 
        1.92056         1.18134        0.645313 
         1.9267         1.17389        0.640335 
        1.93284         1.17004        0.635408 
        1.93897         1.16119        0.630541 
        1.94509         1.15376        0.625736 
        1.95123         1.14566        0.620969 
        1.95737         1.14019        0.616249 
        1.96349         1.13264        0.611589 
        1.96964         1.12775        0.606965 
        1.97578         1.12068        0.602386 
        1.98192         1.11566        0.597864 
        1.98805         1.10651        0.593388 
        1.99419         1.10328        0.588958 
        2.00033         1.09939        0.584571 
        2.00647         1.08865         0.58023 
         2.0126         1.08471         0.57594 
        2.01874         1.07755        0.571687 
        2.02488         1.07306        0.567474 
        2.03101         1.06376        0.563311 
        2.03714         1.05703        0.559194 
        2.04328         1.05531        0.555113 
        2.04941         1.04704        0.551077 
        2.05554          1.0422        0.547084 
        2.06167         1.03525        0.543125 
        2.06781         1.03081        0.539204 
        2.07396         1.02366        0.535317 
        2.08009         1.01934        0.531475 
        2.08622         1.01219        0.527676 
        2.09237         1.01015        0.523905 
        2.09851          1.0041        0.520172 
        2.10464        0.999736         0.51648 
        2.11077        0.992713         0.51283 
        2.11691        0.986292        0.509206 
        2.12305        0.982691        0.505617 
        2.12918        0.976787        0.502072 
        2.13531        0.972033         0.49856 
        2.14145        0.966066        0.495073 
         2.1476        0.960254        0.491616 
        2.15372        0.956679         0.48821 
        2.15985        0.950275        0.484832 
        2.16599         0.94553        0.481476 
        2.17213        0.940642        0.478156 
        2.17827        0.937746        0.474868 
         2.1844        0.932936        0.471614 
        2.19054        0.929372        0.468389 
        2.19666        0.922954        0.465199 
         2.2028        0.917933        0.462036 
        2.20893         0.91294        0.458901 
        2.21508        0.910579        0.455792 
        2.22122        0.901748         0.45271 
        2.22736        0.898183        0.449663 
        2.23349        0.897838        0.446646 
        2.23962        0.890169        0.443654 
        2.24577         0.88549        0.440687 
         2.2519        0.880468        0.437751 
        2.25802          0.8779        0.434847 
        2.26417        0.871421        0.431962 
        2.27031        0.868502          0.4291 
        2.27644        0.864214        0.426272 
        2.28257        0.860652         0.42347 
        2.28872        0.855443        0.420687 
        2.29486        0.851989        0.417931 
        2.30099        0.846586        0.415205 
        2.30712        0.843089        0.412502 
        2.31326         0.84033        0.409818 
         2.3194        0.836648         0.40716 
        2.32553        0.832668        0.404531 
        2.33166         0.82727        0.401925 
         2.3378        0.822807        0.399339 
        2.34394        0.818149        0.396775 
        2.35007         0.81476        0.394237 
        2.35619        0.812645        0.391724 
        2.36233        0.806371        0.389228 
        2.36848         0.80394        0.386747 
        2.37462        0.799453        0.384294 
        2.38075        0.797323        0.381865 
        2.38689         0.79267        0.379454 
        2.39303        0.789756        0.377065 
        2.39916        0.784112        0.374698 
        2.40529        0.782806        0.372353 
        2.41143        0.778426        0.370025 
        2.41757        0.774889        0.367717 
         2.4237        0.772112        0.365432 
        2.42983        0.768025        0.363167 
        2.43598        0.764677        0.360915 
        2.44211        0.761552        0.358686 
        2.44823        0.757549        0.356481 
        2.45437        0.754484        0.354288 
        2.46052        0.752469        0.352112 
        2.46665        0.748157        0.349958 
        2.47279        0.744477        0.347823 
        2.47892        0.740013        0.345705 
        2.48507        0.737665        0.343602 
         2.4912        0.734066         0.34152 
