# k  (h/Mpc)    P(k)  (Mpc/h)^3    P_linear(k)  (Mpc/h)^3
     0.00783031         12769.5         12964.5 
       0.013688         16034.2         15926.1 
       0.019231         16054.5           16040 
      0.0249154         14453.9         14742.5 
      0.0312784         12554.2         12685.7 
      0.0375637           10751           10755 
      0.0433917          9196.5         9349.48 
      0.0492413         8289.13         8346.88 
      0.0555754         7395.78         7614.43 
      0.0619321         7079.58         7075.59 
       0.067871         6430.53         6606.16 
      0.0738098         5926.33         6087.45 
      0.0800417         5280.73          5476.1 
      0.0862327         4741.26         4845.92 
      0.0921407         4275.59         4286.71 
      0.0982031         3786.52         3807.54 
       0.104506         3525.07         3434.47 
       0.110769         3258.35         3179.85 
       0.116806         3068.24         3011.75 
       0.122832         2935.81         2879.47 
       0.129052         2735.35          2742.3 
       0.135211         2588.72         2582.54 
       0.141259         2458.66         2399.06 
       0.147318         2295.34         2201.41 
       0.153489         2089.49         2006.23 
       0.159709          1961.1         1834.73 
       0.165845         1873.32         1700.54 
       0.171974         1766.06         1601.36 
       0.178125         1683.95         1528.94 
       0.184229         1617.85         1471.92 
        0.19034         1524.82         1417.54 
       0.196428            1495         1357.44 
       0.202534         1438.72         1288.05 
       0.208729         1364.89         1210.63 
       0.214876         1297.08         1132.57 
       0.220989         1249.13         1060.12 
       0.227147         1189.55         997.091 
        0.23329         1140.95          945.94 
       0.239377         1119.36         905.675 
       0.245482         1047.88         872.587 
       0.251667         1041.35         842.572 
       0.257832         1001.51         812.617 
       0.263955         968.324         780.801 
       0.270079         932.825         746.638 
        0.27624         921.333         711.038 
       0.282372         882.072         676.326 
        0.28843         868.007         644.499 
       0.294538         823.886         616.081 
       0.300721         819.686         591.329 
        0.30691         784.338         569.999 
       0.313033         769.288         551.211 
       0.319153         750.765         533.503 
       0.325316         727.433         515.785 
        0.33145         708.561         497.768 
       0.337538         697.839         479.529 
       0.343633          678.13         461.317 
       0.349808         654.473         443.479 
       0.355968         649.907         426.842 
       0.362074          640.52         411.747 
       0.368217         621.865         398.025 
       0.374374         595.971         385.486 
       0.380519         594.578         373.837 
       0.386598         578.827         362.815 
       0.392688         576.449          351.97 
        0.39888          559.31         341.037 
       0.405048         549.286         330.254 
       0.411186         540.686         319.734 
       0.417313          529.91         309.626 
       0.423458         520.306         300.019 
       0.429607         511.834         290.984 
       0.435692         499.906         282.633 
       0.441815         495.829         274.735 
       0.447964         485.381         267.188 
       0.454126         475.603         259.907 
       0.460267         466.808         252.859 
       0.466387         461.522         245.986 
        0.47254         453.663         239.224 
       0.478662         452.012         232.689 
       0.484765         437.062          226.41 
       0.490885         433.367         220.369 
       0.497035         425.182         214.568 
       0.503198         419.954         209.035 
       0.509342         416.607         203.768 
       0.515458         412.494         198.731 
       0.521598         402.679         193.839 
       0.527764         395.728          189.07 
       0.533884         393.604         184.472 
           0.54         388.148          180.01 
       0.546137         386.496          175.66 
       0.552299         378.822          171.43 
       0.558452         376.826          167.35 
       0.564573         371.268         163.442 
       0.570708          365.22         159.673 
       0.576825         357.516         156.049 
       0.582926         356.062         152.553 
       0.589034         352.892         149.159 
       0.595184         349.666         145.839 
       0.601379         344.881         142.592 
       0.607522         339.722         139.466 
       0.613639         338.383         136.446 
       0.619772         330.536         133.508 
       0.625918          329.58         130.652 
       0.632068         324.379          127.88 
       0.638161          323.14         125.216 
         0.6443         317.576          122.61 
       0.650464         314.892         120.072 
       0.656582         312.908         117.627 
       0.662703         311.529          115.25 
       0.668861         305.909         112.927 
       0.675024         302.807         110.666 
       0.681124         300.954          108.49 
       0.687237         297.844         106.367 
       0.693381          293.48         104.291 
       0.699536         290.608         102.266 
       0.705665          288.48         100.305 
       0.711789         286.406         98.3965 
       0.717957         284.388         96.5256 
        0.72409         281.603         94.7147 
       0.730186         278.468         92.9621 
       0.736317         275.557          91.245 
       0.742472         274.199         89.5656 
       0.748622         271.602         87.9307 
        0.75476         269.019         86.3405 
       0.760888         265.845         84.7925 
       0.767043         266.089         83.2766 
       0.773185         262.675         81.8012 
       0.779291         258.319         80.3701 
       0.785407         257.796         78.9715 
       0.791564          254.87         77.5976 
       0.797719         252.349         76.2574 
       0.803834         250.616         74.9576 
       0.809972         249.474         73.6836 
       0.816124         249.126         72.4368 
       0.822261         245.662         71.2224 
       0.828378          243.66         70.0397 
       0.834502         242.586         68.8831 
       0.840667         239.597         67.7453 
       0.846816         238.087         66.6367 
       0.852925         236.907         65.5601 
       0.859047         234.936         64.5052 
       0.865192         232.336         63.4703 
       0.871341         230.575         62.4576 
       0.877463         229.148         61.4717 
       0.883569         228.288         60.5098 
       0.889708         225.819         59.5637 
       0.895864         223.345         58.6356 
       0.902008          222.45         57.7293 
       0.908149           221.5         56.8429 
       0.914301         218.607         55.9737 
       0.920448         217.255         55.1238 
       0.926574         215.677         54.2945 
       0.932687         215.705         53.4843 
       0.938823         213.042         52.6878 
       0.944975         211.671         51.9058 
       0.951105          210.57         51.1426 
       0.957225         208.828         50.3961 
       0.963368         206.207         49.6622 
       0.969511         205.421         48.9429 
       0.975621         203.562         48.2418 
       0.981748         203.643         47.5528 
       0.987916         201.554         46.8729 
        0.99406         199.422          46.209 
        1.00019         199.459         45.5594 
        1.00632         197.668         44.9229 
        1.01246         196.217         44.2977 
        1.01859         195.965         43.6855 
        1.02471         193.404         43.0857 
        1.03085         191.626         42.4952 
        1.03698         190.902         41.9171 
        1.04314         189.186         41.3474 
        1.04929         188.073         40.7897 
        1.05541          188.04         40.2446 
        1.06154         185.874         39.7081 
        1.06769         185.687         39.1807 
        1.07382         184.075         38.6646 
        1.07993         182.522         38.1591 
        1.08607         181.899         37.6605 
        1.09222         180.888         37.1704 
        1.09836         179.376         36.6896 
        1.10449         177.541          36.218 
        1.11063         176.105         35.7541 
        1.11677         175.894         35.2986 
         1.1229         174.457         34.8519 
        1.12903         173.619         34.4125 
        1.13518         172.714         33.9805 
        1.14131         171.065         33.5561 
        1.14745         170.893         33.1392 
        1.15359         169.526         32.7294 
        1.15973         168.607         32.3264 
        1.16584         166.979          31.932 
        1.17197         166.562         31.5437 
        1.17811         165.339         31.1606 
        1.18424         164.472         30.7851 
        1.19038         164.058         30.4147 
        1.19652         162.687         30.0506 
        1.20267         162.029         29.6925 
        1.20881         160.544         29.3403 
        1.21495         159.877         28.9944 
        1.22108         158.943         28.6541 
         1.2272         157.599         28.3201 
        1.23334          157.08         27.9907 
        1.23949         155.941         27.6658 
        1.24562         155.131          27.347 
        1.25174         153.728         27.0337 
        1.25789         152.891         26.7244 
        1.26402         151.913         26.4206 
        1.27014         150.892         26.1222 
        1.27628         150.401         25.8275 
        1.28244         150.009         25.5369 
        1.28858         148.799         25.2511 
        1.29471         147.327         24.9704 
        1.30084         147.067         24.6942 
        1.30697         145.862         24.4218 
        1.31312         145.218         24.1532 
        1.31925         144.307         23.8894 
        1.32537         143.615         23.6299 
        1.33151         142.249         23.3733 
        1.33765         141.785         23.1207 
        1.34378         141.048         22.8723 
        1.34992         140.532         22.6275 
        1.35606         140.044         22.3856 
         1.3622         138.692         22.1478 
        1.36833         137.669          21.914 
        1.37445         137.009         21.6837 
        1.38059         136.311          21.456 
        1.38675         135.599         21.2311 
        1.39288          135.05         21.0103 
        1.39901         134.683         20.7927 
        1.40515         133.344         20.5777 
         1.4113         132.441         20.3659 
        1.41742         131.847         20.1579 
        1.42355         131.036         19.9524 
         1.4297         130.408         19.7492 
        1.43585         129.363         19.5489 
        1.44198         129.005         19.3521 
        1.44809         128.283         19.1584 
        1.45423         127.514         18.9667 
        1.46036         126.839          18.778 
        1.46649          125.93         18.5918 
        1.47263         125.301         18.4079 
        1.47877         124.833         18.2267 
        1.48491         123.523         18.0476 
        1.49104         123.464         17.8713 
        1.49718           122.3         17.6972 
        1.50333         121.877         17.5252 
        1.50947         121.375         17.3558 
         1.5156         120.505         17.1889 
        1.52172         119.806         17.0242 
        1.52787         119.128         16.8613 
          1.534          118.54         16.7008 
        1.54013          117.81         16.5425 
        1.54627         117.339          16.386 
        1.55241           116.4         16.2315 
        1.55855         115.772         16.0793 
        1.56467         115.499         15.9294 
         1.5708         114.549          15.781 
        1.57695         114.232         15.6342 
        1.58308         113.459         15.4897 
        1.58922         113.128         15.3469 
        1.59535         112.268          15.206 
         1.6015         111.791         15.0667 
        1.60764         111.167         14.9291 
        1.61376         110.782         14.7937 
        1.61989         109.912         14.6599 
        1.62604         109.484         14.5274 
        1.63218         108.976         14.3966 
        1.63831         108.077         14.2678 
        1.64444         107.785         14.1405 
        1.65059         107.204         14.0144 
        1.65673         106.197         13.8901 
        1.66285         106.016         13.7675 
        1.66898          105.48         13.6465 
        1.67512          104.93         13.5266 
        1.68127          104.25         13.4081 
         1.6874         103.469         13.2913 
        1.69353         103.082         13.1759 
        1.69967         102.705         13.0617 
        1.70581         102.077         12.9488 
        1.71193         101.689         12.8377 
        1.71806         101.063         12.7277 
        1.72421         100.327         12.6187 
        1.73035         100.092         12.5112 
        1.73649         99.3988         12.4049 
        1.74262         98.7802            12.3 
        1.74876         98.5016         12.1962 
        1.75489         97.6706         12.0938 
        1.76101         97.2315         11.9926 
        1.76715         96.6082         11.8924 
        1.77329         96.3761         11.7933 
        1.77943         95.5304         11.6953 
        1.78557         95.3226         11.5985 
        1.79171         94.5431         11.5028 
        1.79785         94.1648         11.4082 
        1.80399         93.6357         11.3146 
        1.81012           93.26         11.2222 
        1.81625         92.7441          11.131 
        1.82239         92.4327         11.0405 
        1.82853         91.9185         10.9512 
        1.83466         91.2238         10.8629 
        1.84078         91.0498         10.7757 
        1.84692         90.3499         10.6893 
        1.85306         89.8549         10.6038 
         1.8592         89.5189         10.5193 
        1.86533         88.9186         10.4358 
        1.87147         88.4422         10.3531 
        1.87761         88.0744         10.2713 
        1.88375         87.4989         10.1904 
        1.88988          87.089         10.1105 
        1.89601          86.626         10.0314 
        1.90215         86.2229         9.95315 
        1.90829         85.6897         9.87573 
        1.91442         85.3765         9.79913 
        1.92056          84.745         9.72341 
         1.9267         84.4806         9.64841 
        1.93284         83.9839         9.57416 
        1.93897         83.5615         9.50084 
        1.94509         83.2453         9.42844 
        1.95123         82.7665         9.35661 
        1.95737         82.2798         9.28548 
        1.96349         81.7868         9.21527 
        1.96964         81.3558         9.14559 
        1.97578         80.9944          9.0766 
        1.98192          80.755         9.00847 
        1.98805         80.0241         8.94102 
        1.99419         79.7576         8.87427 
        2.00033         79.4811         8.80817 
        2.00647          78.957         8.74275 
         2.0126         78.5273         8.67812 
        2.01874         77.9797         8.61404 
        2.02488         77.6325         8.55056 
        2.03101         77.2705         8.48783 
        2.03714         76.7474          8.4258 
        2.04328         76.5044         8.36431 
        2.04941         76.1338         8.30349 
        2.05554         75.8353         8.24332 
        2.06167         75.3428         8.18367 
        2.06781         74.8378          8.1246 
        2.07396          74.506         8.06603 
        2.08009         74.2235         8.00814 
        2.08622         73.8278         7.95088 
        2.09237         73.4128         7.89408 
        2.09851         73.2011         7.83782 
        2.10464         72.6763          7.7822 
        2.11077         72.3436         7.72719 
        2.11691         72.0626         7.67259 
        2.12305         71.5426         7.61851 
        2.12918         71.2212         7.56509 
        2.13531         70.8964         7.51217 
        2.14145         70.4154         7.45964 
         2.1476         70.0816         7.40755 
        2.15372         69.8111         7.35622 
        2.15985         69.3886         7.30532 
        2.16599         69.0892         7.25476 
        2.17213         68.7481         7.20474 
        2.17827         68.3508         7.15519 
         2.1844         67.9865         7.10616 
        2.19054          67.827         7.05757 
        2.19666         67.3482         7.00951 
         2.2028         67.2519         6.96185 
        2.20893         66.7235         6.91461 
        2.21508         66.3961         6.86776 
        2.22122         66.0783         6.82132 
        2.22736         65.7525         6.77542 
        2.23349         65.3659         6.72994 
        2.23962         64.9849         6.68487 
        2.24577         64.7087         6.64016 
         2.2519         64.4638         6.59593 
        2.25802         64.1378         6.55217 
        2.26417          63.682         6.50869 
        2.27031         63.4426         6.46556 
        2.27644         63.1703         6.42296 
        2.28257         62.8128         6.38073 
        2.28872         62.4791         6.33881 
        2.29486         62.0414         6.29728 
        2.30099         61.7705          6.2562 
        2.30712         61.6434         6.21547 
        2.31326         61.3144         6.17504 
         2.3194          60.951         6.13499 
        2.32553         60.6309         6.09536 
        2.33166         60.2746          6.0561 
         2.3378         59.9355         6.01714 
        2.34394          59.715          5.9785 
        2.35007         59.3842         5.94026 
        2.35619         59.1123          5.9024 
        2.36233         58.8748         5.86478 
        2.36848          58.555         5.82741 
        2.37462         58.1736         5.79045 
        2.38075         58.0401         5.75384 
        2.38689         57.6875         5.71752 
        2.39303         57.3811         5.68152 
        2.39916         57.1383         5.64586 
        2.40529         56.8813         5.61052 
        2.41143         56.6033         5.57545 
        2.41757         56.2569         5.54066 
         2.4237         56.1219         5.50624 
        2.42983         55.6676         5.47211 
        2.43598         55.4125         5.43818 
        2.44211         55.2025         5.40459 
        2.44823         54.9292         5.37136 
        2.45437         54.5824         5.33833 
        2.46052         54.3399         5.30554 
        2.46665         54.1431         5.27308 
        2.47279         53.7814         5.24091 
        2.47892         53.5826         5.20899 
        2.48507         53.3089          5.1773 
         2.4912         53.1117         5.14594 
