# k  (h/Mpc)    Pcb(k)  (Mpc/h)^3    Pcb_linear(k)  (Mpc/h)^3
     0.00783031         536.814         541.825 
       0.013688         665.097         666.973 
       0.019231         672.373         672.689 
      0.0249154         616.317         618.902 
      0.0312784         532.819         532.938 
      0.0375637         453.134          452.03 
      0.0433917         393.026         393.068 
      0.0492413         351.568         350.994 
      0.0555754         319.443          320.25 
      0.0619321         298.644         297.627 
       0.067871          277.25         277.909 
      0.0738098         255.414         256.108 
      0.0800417         229.397         230.404 
      0.0862327         203.667         203.901 
      0.0921407         180.498         180.379 
      0.0982031         160.099         160.222 
       0.104506         145.276         144.528 
       0.110769         134.388         133.817 
       0.116806          126.68         126.746 
       0.122832         121.462         121.181 
       0.129052          115.18         115.411 
       0.135211         108.429         108.689 
       0.141259         101.115         100.969 
       0.147318         93.1372         92.6512 
       0.153489         84.7383         84.4378 
       0.159709         77.6216         77.2206 
       0.165845         72.4215         71.5731 
       0.171974         67.7753         67.3992 
       0.178125         64.8095         64.3518 
       0.184229         62.4978         61.9523 
        0.19034         59.7538         59.6637 
       0.196428         57.5088         57.1344 
       0.202534         54.9217         54.2144 
       0.208729         51.4693         50.9557 
       0.214876         48.0425         47.6706 
       0.220989         45.3447         44.6214 
       0.227147         42.3985         41.9684 
        0.23329         40.2648         39.8154 
       0.239377         38.6581         38.1208 
       0.245482         37.0578         36.7282 
       0.251667         36.0427         35.4649 
       0.257832         34.7029         34.2042 
       0.263955          33.395         32.8651 
       0.270079         31.9744         31.4271 
        0.27624         30.6621         29.9288 
       0.282372         29.2121         28.4678 
        0.28843         27.7617         27.1282 
       0.294538         26.5707          25.932 
       0.300721         25.6771         24.8901 
        0.30691          24.613         23.9925 
       0.313033         23.8393         23.2016 
       0.319153         22.8779         22.4563 
       0.325316         22.4129         21.7105 
        0.33145         21.5979         20.9522 
       0.337538          20.842         20.1845 
       0.343633         20.0182         19.4179 
       0.349808           19.34         18.6671 
       0.355968         18.6475         17.9668 
       0.362074         17.9851         17.3314 
       0.368217          17.422         16.7539 
       0.374374         16.8235         16.2261 
       0.380519         16.3917         15.7358 
       0.386598         15.9515         15.2719 
       0.392688         15.5382         14.8153 
        0.39888         15.0425         14.3551 
       0.405048          14.612         13.9013 
       0.411186         14.1863         13.4585 
       0.417313         13.7025          13.033 
       0.423458         13.3269         12.6286 
       0.429607         12.9105         12.2484 
       0.435692         12.5429         11.8968 
       0.441815         12.2293         11.5644 
       0.447964         11.9739         11.2467 
       0.454126         11.5762         10.9402 
       0.460267         11.3011         10.6436 
       0.466387         10.9604         10.3543 
        0.47254         10.7215         10.0696 
       0.478662         10.4744          9.7946 
       0.484765         10.1615         9.53026 
       0.490885         9.90786           9.276 
       0.497035         9.74325         9.03186 
       0.503198         9.46899         8.79889 
       0.509342         9.24502         8.57723 
       0.515458         9.01322         8.36519 
       0.521598         8.81833         8.15927 
       0.527764         8.58925         7.95853 
       0.533884          8.4359         7.76502 
           0.54         8.23053         7.57717 
       0.546137         8.05854          7.3941 
       0.552299         7.88547         7.21601 
       0.558452         7.66066         7.04431 
       0.564573         7.53137          6.8798 
       0.570708         7.36926         6.72112 
       0.576825         7.18363         6.56859 
       0.582926         7.05618         6.42146 
       0.589034         6.85793         6.27858 
       0.595184         6.73799         6.13884 
       0.601379         6.58954         6.00215 
       0.607522          6.4861         5.87058 
       0.613639         6.38402         5.74344 
       0.619772         6.20925         5.61977 
       0.625918         6.12182         5.49957 
       0.632068         6.01927         5.38289 
       0.638161         5.87414         5.27073 
         0.6443         5.75376         5.16107 
       0.650464         5.62809         5.05424 
       0.656582         5.55816          4.9513 
       0.662703         5.45158         4.85126 
       0.668861         5.36103         4.75346 
       0.675024         5.24483          4.6583 
       0.681124         5.14177         4.56669 
       0.687237         5.06691         4.47734 
       0.693381         4.97972         4.38995 
       0.699536         4.84875         4.30474 
       0.705665         4.77872         4.22216 
       0.711789         4.70253         4.14184 
       0.717957          4.6133         4.06309 
        0.72409         4.53401         3.98686 
       0.730186         4.45885         3.91308 
       0.736317         4.41189         3.84081 
       0.742472         4.33477         3.77012 
       0.748622         4.25047          3.7013 
        0.75476         4.16364         3.63436 
       0.760888         4.10243          3.5692 
       0.767043         4.05486         3.50539 
       0.773185         3.96875         3.44329 
       0.779291         3.92062         3.38305 
       0.785407          3.8538         3.32418 
       0.791564          3.7964         3.26635 
       0.797719         3.73954         3.20993 
       0.803834         3.69186         3.15522 
       0.809972         3.63665          3.1016 
       0.816124          3.5671         3.04911 
       0.822261         3.50376         2.99799 
       0.828378          3.4606         2.94821 
       0.834502         3.42442         2.89952 
       0.840667         3.35037         2.85163 
       0.846816         3.29955         2.80497 
       0.852925          3.2698         2.75965 
       0.859047          3.2212         2.71525 
       0.865192         3.17583         2.67168 
       0.871341         3.13446         2.62905 
       0.877463         3.09362         2.58756 
       0.883569         3.03686         2.54707 
       0.889708         2.99162         2.50724 
       0.895864         2.95461         2.46817 
       0.902008         2.90789         2.43003 
       0.908149          2.8751         2.39271 
       0.914301         2.82048         2.35613 
       0.920448         2.78682         2.32035 
       0.926574         2.74642         2.28545 
       0.932687         2.71364         2.25134 
       0.938823         2.68584         2.21781 
       0.944975         2.64755         2.18489 
       0.951105         2.61629         2.15277 
       0.957225           2.595         2.12135 
       0.963368         2.55548         2.09045 
       0.969511         2.51709         2.06018 
       0.975621         2.47876         2.03067 
       0.981748         2.45693         2.00166 
       0.987916         2.42299         1.97304 
        0.99406         2.38409          1.9451 
        1.00019         2.36238         1.91775 
        1.00632         2.32988         1.89096 
        1.01246         2.30283         1.86464 
        1.01859          2.2769         1.83888 
        1.02471         2.24564         1.81363 
        1.03085         2.22275         1.78877 
        1.03698         2.19109         1.76444 
        1.04314         2.16975         1.74046 
        1.04929         2.14036         1.71698 
        1.05541         2.11756         1.69403 
        1.06154         2.09178         1.67145 
        1.06769         2.07007         1.64925 
        1.07382         2.04361         1.62753 
        1.07993         2.01353         1.60625 
        1.08607         2.00253         1.58526 
        1.09222           1.974         1.56463 
        1.09836          1.9593          1.5444 
        1.10449         1.93577         1.52454 
        1.11063         1.90805         1.50502 
        1.11677         1.88631         1.48584 
         1.1229         1.86654         1.46704 
        1.12903         1.84362         1.44855 
        1.13518         1.82905         1.43036 
        1.14131         1.80277         1.41249 
        1.14745         1.77349         1.39495 
        1.15359         1.76486          1.3777 
        1.15973         1.73763         1.36073 
        1.16584         1.73109         1.34413 
        1.17197         1.70919         1.32778 
        1.17811         1.69273         1.31166 
        1.18424         1.67924         1.29585 
        1.19038         1.65687         1.28026 
        1.19652         1.63809         1.26494 
        1.20267          1.6264         1.24986 
        1.20881         1.60339         1.23504 
        1.21495         1.59207         1.22048 
        1.22108         1.57586         1.20615 
         1.2272         1.56413         1.19209 
        1.23334         1.54334         1.17823 
        1.23949         1.52637         1.16455 
        1.24562         1.51521         1.15113 
        1.25174         1.49831         1.13795 
        1.25789         1.48485         1.12493 
        1.26402         1.46513         1.11213 
        1.27014          1.4517         1.09957 
        1.27628         1.44512         1.08717 
        1.28244         1.42322         1.07494 
        1.28858         1.41216         1.06291 
        1.29471         1.39879         1.05109 
        1.30084         1.38351         1.03947 
        1.30697         1.37268           1.028 
        1.31312         1.35253         1.01669 
        1.31925         1.34606         1.00559 
        1.32537         1.33367        0.994667 
        1.33151         1.32282        0.983866 
        1.33765         1.30783        0.973233 
        1.34378         1.29304        0.962778 
        1.34992         1.28718         0.95247 
        1.35606         1.27007        0.942291 
         1.3622         1.26202         0.93228 
        1.36833         1.24945        0.922438 
        1.37445         1.23489        0.912744 
        1.38059         1.22553         0.90316 
        1.38675         1.22213        0.893691 
        1.39288         1.20507        0.884397 
        1.39901         1.19421        0.875239 
        1.40515         1.18484         0.86619 
         1.4113          1.1735        0.857274 
        1.41742          1.1633        0.848518 
        1.42355          1.1591        0.839868 
         1.4297         1.14259        0.831313 
        1.43585         1.13451        0.822882 
        1.44198         1.12929        0.814599 
        1.44809         1.11366        0.806447 
        1.45423         1.10548        0.798377 
        1.46036          1.0965        0.790433 
        1.46649         1.08699        0.782594 
        1.47263         1.07718        0.774855 
        1.47877          1.0668        0.767225 
        1.48491         1.05841        0.759686 
        1.49104         1.04954        0.752265 
        1.49718         1.04366        0.744937 
        1.50333         1.03262        0.737696 
        1.50947         1.02654        0.730566 
         1.5156         1.01647        0.723541 
        1.52172         1.00823        0.716608 
        1.52787        0.999045        0.709753 
          1.534        0.993449        0.702996 
        1.54013        0.982048        0.696334 
        1.54627        0.974272        0.689746 
        1.55241        0.966174        0.683243 
        1.55855        0.959027        0.676833 
        1.56467        0.953882        0.670524 
         1.5708         0.94274        0.664277 
        1.57695        0.938695        0.658101 
        1.58308        0.930944        0.652017 
        1.58922        0.922937        0.646007 
        1.59535        0.916092        0.640075 
         1.6015        0.909108         0.63421 
        1.60764          0.9031        0.628421 
        1.61376        0.894141         0.62272 
        1.61989        0.888726        0.617086 
        1.62604        0.880957         0.61151 
        1.63218          0.8768        0.606006 
        1.63831         0.86775        0.600582 
        1.64444        0.861091        0.595223 
        1.65059        0.855971        0.589918 
        1.65673          0.8482        0.584682 
        1.66285        0.841849        0.579525 
        1.66898        0.838317        0.574429 
        1.67512        0.828878        0.569384 
        1.68127        0.823038        0.564396 
         1.6874        0.819588        0.559478 
        1.69353        0.811268        0.554622 
        1.69967        0.805358        0.549812 
        1.70581        0.801007        0.545062 
        1.71193        0.794454        0.540385 
        1.71806        0.789667        0.535754 
        1.72421        0.783287        0.531168 
        1.73035        0.776695         0.52664 
        1.73649         0.77312        0.522167 
        1.74262        0.767377        0.517749 
        1.74876        0.760974         0.51338 
        1.75489        0.754776         0.50907 
        1.76101        0.749696        0.504811 
        1.76715         0.74501        0.500595 
        1.77329        0.740262        0.496422 
        1.77943        0.734034        0.492296 
        1.78557        0.728953        0.488222 
        1.79171        0.725313        0.484194 
        1.79785        0.719588         0.48021 
        1.80399         0.71475        0.476273 
        1.81012        0.710823        0.472385 
        1.81625        0.704821        0.468542 
        1.82239        0.701126        0.464736 
        1.82853        0.693216        0.460975 
        1.83466        0.690435        0.457259 
        1.84078        0.684897        0.453588 
        1.84692         0.68214        0.449952 
        1.85306        0.677133        0.446351 
         1.8592        0.673395        0.442795 
        1.86533        0.668389         0.43928 
        1.87147        0.663895        0.435799 
        1.87761        0.659779        0.432354 
        1.88375         0.65326        0.428951 
        1.88988        0.651109        0.425588 
        1.89601        0.645754         0.42226 
        1.90215        0.642433        0.418964 
        1.90829        0.637303        0.415705 
        1.91442        0.633217        0.412481 
        1.92056         0.62988        0.409293 
         1.9267        0.624982        0.406136 
        1.93284        0.622329        0.403011 
        1.93897        0.617929        0.399924 
        1.94509        0.614014        0.396877 
        1.95123        0.609349        0.393853 
        1.95737         0.60625        0.390859 
        1.96349        0.601445        0.387904 
        1.96964        0.598347        0.384971 
        1.97578         0.59422        0.382067 
        1.98192         0.59214        0.379199 
        1.98805        0.586972         0.37636 
        1.99419        0.583945         0.37355 
        2.00033        0.581408        0.370767 
        2.00647          0.5766        0.368014 
         2.0126        0.573207        0.365293 
        2.01874        0.570126        0.362596 
        2.02488        0.567187        0.359924 
        2.03101        0.562048        0.357283 
        2.03714        0.558362        0.354672 
        2.04328        0.556692        0.352084 
        2.04941        0.552872        0.349524 
        2.05554        0.549195        0.346991 
        2.06167        0.546025         0.34448 
        2.06781        0.541704        0.341994 
        2.07396        0.538294        0.339528 
        2.08009        0.535848        0.337091 
        2.08622        0.532446        0.334681 
        2.09237        0.531039         0.33229 
        2.09851        0.527675        0.329922 
        2.10464        0.524576        0.327581 
        2.11077        0.520923        0.325265 
        2.11691        0.517583        0.322967 
        2.12305        0.514753        0.320691 
        2.12918        0.511902        0.318442 
        2.13531        0.508667        0.316214 
        2.14145        0.506058        0.314003 
         2.1476        0.502759         0.31181 
        2.15372        0.501169         0.30965 
        2.15985        0.496892        0.307507 
        2.16599        0.493681        0.305379 
        2.17213        0.491564        0.303273 
        2.17827        0.489812        0.301188 
         2.1844        0.487195        0.299124 
        2.19054         0.48443        0.297079 
        2.19666        0.480648        0.295055 
         2.2028        0.478442        0.293049 
        2.20893        0.475782        0.291061 
        2.21508        0.473405        0.289089 
        2.22122        0.469379        0.287134 
        2.22736        0.467324        0.285202 
        2.23349        0.466008        0.283288 
        2.23962        0.463105         0.28139 
        2.24577        0.459328        0.279508 
         2.2519        0.457821        0.277646 
        2.25802        0.454887        0.275804 
        2.26417         0.45209        0.273974 
        2.27031        0.449702        0.272159 
        2.27644        0.448029        0.270365 
        2.28257        0.445424        0.268588 
        2.28872        0.442821        0.266823 
        2.29486        0.440266        0.265075 
        2.30099        0.437984        0.263346 
        2.30712        0.436151        0.261632 
        2.31326        0.433464         0.25993 
         2.3194        0.432736        0.258244 
        2.32553        0.430032        0.256576 
        2.33166        0.427661        0.254923 
         2.3378        0.425334        0.253283 
        2.34394        0.421638        0.251657 
        2.35007        0.420264        0.250047 
        2.35619         0.41823        0.248453 
        2.36233        0.415112         0.24687 
        2.36848        0.414022        0.245297 
        2.37462        0.411201        0.243741 
        2.38075        0.410337          0.2422 
        2.38689        0.407448        0.240671 
        2.39303        0.406254        0.239156 
        2.39916        0.402863        0.237655 
        2.40529         0.40137        0.236167 
        2.41143        0.399731        0.234691 
        2.41757        0.397478        0.233226 
         2.4237        0.395552        0.231777 
        2.42983        0.393781        0.230341 
        2.43598        0.391876        0.228912 
        2.44211          0.3902        0.227499 
        2.44823        0.388389          0.2261 
        2.45437        0.385587        0.224709 
        2.46052        0.384931        0.223329 
        2.46665         0.38219        0.221963 
        2.47279        0.380156        0.220609 
        2.47892        0.377997        0.219265 
        2.48507        0.376732        0.217931 
         2.4912        0.375009        0.216611 
