# k  (h/Mpc)    Pcb(k)  (Mpc/h)^3    Pcb_linear(k)  (Mpc/h)^3
     0.00783031         2441.24         2466.96 
       0.013688          3037.7         3036.04 
       0.019231         3063.44         3061.31 
      0.0249154         2794.38         2815.91 
      0.0312784         2419.99         2424.35 
      0.0375637         2062.03         2056.08 
      0.0433917         1781.88         1787.79 
      0.0492413         1597.34         1596.36 
      0.0555754         1444.82         1456.49 
      0.0619321         1360.62         1353.57 
       0.067871          1255.6         1263.87 
      0.0738098         1156.45         1164.71 
      0.0800417         1036.32          1047.8 
      0.0862327         922.789         927.265 
      0.0921407          820.76         820.292 
      0.0982031         726.706         728.622 
       0.104506         664.293         657.248 
       0.110769         614.224         608.536 
       0.116806         577.352         576.378 
       0.122832         554.655         551.072 
       0.129052         523.308          524.83 
       0.135211         493.081          494.26 
       0.141259         462.044         459.151 
       0.147318         427.047         421.327 
       0.153489          388.14         383.976 
       0.159709          357.52         351.156 
       0.165845         335.741         325.474 
       0.171974         313.606         306.493 
       0.178125         300.204         292.635 
       0.184229         289.697         281.723 
        0.19034          274.48         271.315 
       0.196428         266.293         259.813 
       0.202534         255.727         246.535 
       0.208729         239.766         231.716 
       0.214876         223.823         216.777 
       0.220989         213.102         202.911 
       0.227147         199.122         190.847 
        0.23329         189.704         181.056 
       0.239377         183.293          173.35 
       0.245482         173.838         167.017 
       0.251667         170.466         161.273 
       0.257832         164.598          155.54 
       0.263955         158.284          149.45 
       0.270079         151.885         142.911 
        0.27624         147.109         136.098 
       0.282372          140.56         129.454 
        0.28843         133.997         123.362 
       0.294538         128.297         117.923 
       0.300721         125.179         113.185 
        0.30691         119.636         109.103 
       0.313033         116.182         105.507 
       0.319153          111.03         102.117 
       0.325316         109.206         98.7259 
        0.33145         105.093         95.2777 
       0.337538         102.432         91.7864 
       0.343633         98.6109         88.3005 
       0.349808         95.4636         84.8865 
       0.355968         92.6695         81.7019 
       0.362074         89.6067         78.8125 
       0.368217         86.9632          76.186 
       0.374374         84.3575         73.7861 
       0.380519         82.3031         71.5563 
       0.386598         80.0971         69.4468 
       0.392688         78.4457         67.3708 
        0.39888         76.1591         65.2781 
       0.405048          74.274         63.2143 
       0.411186         72.4602         61.2006 
       0.417313          70.121          59.266 
       0.423458         68.3382         57.4269 
       0.429607         66.5092         55.6979 
       0.435692         64.3706         54.0992 
       0.441815         63.4576         52.5875 
       0.447964         62.3712         51.1429 
       0.454126         59.8024         49.7492 
       0.460267         58.8623         48.4003 
       0.466387         57.2678         47.0846 
        0.47254         56.3563         45.7903 
       0.478662         55.3909         44.5396 
       0.484765         53.7441         43.3375 
       0.490885         52.5653         42.1814 
       0.497035         51.8693         41.0711 
       0.503198         50.4763         40.0117 
       0.509342         49.1908         39.0038 
       0.515458         48.2578         38.0396 
       0.521598         47.4819         37.1031 
       0.527764         46.5331         36.1903 
       0.533884           45.74         35.3103 
           0.54         44.7571         34.4561 
       0.546137         44.0971         33.6236 
       0.552299         43.3986         32.8138 
       0.558452         42.0839          32.033 
       0.564573         41.4347         31.2849 
       0.570708         40.8245         30.5634 
       0.576825         39.8851         29.8698 
       0.582926         39.1126         29.2007 
       0.589034         38.1488          28.551 
       0.595184         37.6759         27.9155 
       0.601379         37.0287         27.2939 
       0.607522         36.2862         26.6956 
       0.613639         35.9945         26.1175 
       0.619772         35.0666         25.5551 
       0.625918         34.8804         25.0085 
       0.632068         34.3155          24.478 
       0.638161         33.6383         23.9679 
         0.6443         32.9992         23.4692 
       0.650464         32.4451         22.9834 
       0.656582         32.2265         22.5153 
       0.662703          31.598         22.0604 
       0.668861         31.0522         21.6157 
       0.675024         30.5353          21.183 
       0.681124          30.006         20.7664 
       0.687237         29.5097         20.3601 
       0.693381         29.2735         19.9627 
       0.699536         28.5487         19.5752 
       0.705665         28.5135         19.1997 
       0.711789         27.8548         18.8344 
       0.717957         27.5048         18.4763 
        0.72409         27.1104         18.1297 
       0.730186           26.72         17.7942 
       0.736317         26.4617         17.4655 
       0.742472         25.9976         17.1441 
       0.748622         25.7557         16.8311 
        0.75476         25.3172         16.5268 
       0.760888         24.9537         16.2304 
       0.767043         24.6701         15.9403 
       0.773185         24.2442         15.6579 
       0.779291          24.128         15.3839 
       0.785407         23.8401         15.1162 
       0.791564         23.4124         14.8533 
       0.797719         22.9175         14.5967 
       0.803834         22.8905         14.3479 
       0.809972         22.6702         14.1041 
       0.816124         22.1557         13.8654 
       0.822261         21.9767         13.6329 
       0.828378         21.7583         13.4066 
       0.834502         21.5406         13.1852 
       0.840667         21.2606         12.9674 
       0.846816         20.8936         12.7552 
       0.852925         20.7038         12.5491 
       0.859047         20.4756         12.3472 
       0.865192         20.2813         12.1491 
       0.871341         20.1365         11.9552 
       0.877463         19.7614         11.7665 
       0.883569         19.5361         11.5824 
       0.889708         19.2703         11.4013 
       0.895864         19.1247         11.2237 
       0.902008         18.9785         11.0502 
       0.908149         18.7722         10.8805 
       0.914301         18.6614         10.7142 
       0.920448         18.2957         10.5515 
       0.926574         18.1529         10.3927 
       0.932687          17.961         10.2376 
       0.938823         17.7253         10.0852 
       0.944975         17.5461         9.93549 
       0.951105          17.397          9.7894 
       0.957225         17.2267         9.64653 
       0.963368         17.0846         9.50603 
       0.969511         16.9316         9.36835 
       0.975621         16.7798         9.23416 
       0.981748         16.5548         9.10227 
       0.987916         16.4595         8.97213 
        0.99406         16.2397         8.84505 
        1.00019         16.0221          8.7207 
        1.00632         15.9791         8.59887 
        1.01246         15.8245          8.4792 
        1.01859         15.5815         8.36202 
        1.02471         15.5286         8.24722 
        1.03085         15.3763         8.13419 
        1.03698         15.1379         8.02353 
        1.04314         15.0603         7.91448 
        1.04929          14.875         7.80772 
        1.05541         14.7223         7.70338 
        1.06154         14.6314         7.60069 
        1.06769         14.5542         7.49974 
        1.07382         14.3621         7.40095 
        1.07993         14.2753         7.30418 
        1.08607          14.121         7.20875 
        1.09222         14.0255         7.11494 
        1.09836         13.8568         7.02291 
        1.10449         13.7659         6.93263 
        1.11063           13.62         6.84385 
        1.11677         13.5659         6.75666 
         1.1229         13.4817         6.67115 
        1.12903         13.3063         6.58705 
        1.13518         13.1534         6.50434 
        1.14131         13.0994         6.42311 
        1.14745         12.9906         6.34331 
        1.15359         12.9043         6.26487 
        1.15973         12.7852         6.18773 
        1.16584         12.6058         6.11224 
        1.17197         12.5624         6.03791 
        1.17811         12.4739         5.96459 
        1.18424         12.3643         5.89271 
        1.19038         12.3141         5.82181 
        1.19652         12.1851         5.75211 
        1.20267         12.0721         5.68356 
        1.20881         12.0348         5.61615 
        1.21495         11.9426         5.54993 
        1.22108         11.8044          5.4848 
         1.2272         11.7195         5.42088 
        1.23334         11.6206         5.35783 
        1.23949         11.5186         5.29564 
        1.24562          11.479         5.23461 
        1.25174         11.3989         5.17464 
        1.25789         11.3112         5.11544 
        1.26402          11.261         5.05727 
        1.27014         11.1585         5.00016 
        1.27628         11.0196         4.94376 
        1.28244         10.9561         4.88812 
        1.28858         10.9443         4.83342 
        1.29471          10.823         4.77969 
        1.30084         10.7211         4.72683 
        1.30697         10.6948         4.67469 
        1.31312         10.5579         4.62326 
        1.31925         10.4876         4.57278 
        1.32537         10.4446          4.5231 
        1.33151         10.3791         4.47399 
        1.33765         10.2976         4.42563 
        1.34378         10.2239         4.37809 
        1.34992          10.138         4.33122 
        1.35606         10.0967         4.28493 
         1.3622         10.0342         4.23941 
        1.36833         9.94308         4.19465 
        1.37445         9.89761         4.15057 
        1.38059         9.84956         4.10699 
        1.38675         9.75225         4.06393 
        1.39288         9.71749         4.02166 
        1.39901          9.6169         3.98002 
        1.40515         9.57744         3.93888 
         1.4113         9.51671         3.89833 
        1.41742         9.45184         3.85851 
        1.42355         9.37905         3.81918 
         1.4297         9.33248         3.78028 
        1.43585         9.29459         3.74193 
        1.44198         9.24035         3.70427 
        1.44809         9.17084          3.6672 
        1.45423         9.10333         3.63051 
        1.46036         9.04797         3.59438 
        1.46649         9.00627         3.55873 
        1.47263         8.92265         3.52354 
        1.47877         8.87669         3.48885 
        1.48491         8.83306         3.45456 
        1.49104         8.77808         3.42082 
        1.49718         8.73172         3.38749 
        1.50333         8.68395         3.35457 
        1.50947         8.62076         3.32214 
         1.5156         8.57317          3.2902 
        1.52172         8.53313         3.25867 
        1.52787         8.47158          3.2275 
          1.534         8.41473         3.19677 
        1.54013         8.37498         3.16648 
        1.54627         8.30862         3.13652 
        1.55241         8.27682         3.10695 
        1.55855         8.24004          3.0778 
        1.56467         8.17532         3.04911 
         1.5708         8.15919          3.0207 
        1.57695         8.08401         2.99262 
        1.58308         8.03411         2.96495 
        1.58922         8.01013         2.93762 
        1.59535         7.97461         2.91065 
         1.6015         7.90795         2.88398 
        1.60764         7.85318         2.85765 
        1.61376         7.83847         2.83173 
        1.61989         7.78503         2.80611 
        1.62604          7.7437         2.78075 
        1.63218         7.71723         2.75572 
        1.63831         7.67447         2.73106 
        1.64444         7.62927         2.70669 
        1.65059         7.55888         2.68256 
        1.65673         7.55768         2.65876 
        1.66285         7.47759         2.63531 
        1.66898         7.45274         2.61213 
        1.67512         7.42102         2.58919 
        1.68127         7.37575         2.56651 
         1.6874         7.35136         2.54415 
        1.69353         7.29416         2.52206 
        1.69967         7.26265         2.50019 
        1.70581         7.23188         2.47859 
        1.71193         7.18354         2.45732 
        1.71806         7.16702         2.43626 
        1.72421         7.11154         2.41541 
        1.73035          7.0947         2.39482 
        1.73649         7.05656         2.37448 
        1.74262         7.01101         2.35439 
        1.74876         6.98905         2.33452 
        1.75489         6.95563         2.31492 
        1.76101         6.90132         2.29555 
        1.76715         6.88528         2.27638 
        1.77329         6.83887         2.25741 
        1.77943         6.79836         2.23864 
        1.78557         6.78946         2.22012 
        1.79171         6.74916          2.2018 
        1.79785         6.70587         2.18369 
        1.80399         6.66991         2.16578 
        1.81012         6.64879          2.1481 
        1.81625         6.61157         2.13063 
        1.82239         6.58687         2.11332 
        1.82853         6.54741         2.09622 
        1.83466         6.51888         2.07932 
        1.84078         6.48608         2.06263 
        1.84692         6.47705         2.04609 
        1.85306         6.42677         2.02971 
         1.8592         6.39103         2.01354 
        1.86533         6.36893         1.99756 
        1.87147         6.34293         1.98173 
        1.87761         6.31355         1.96607 
        1.88375         6.27591         1.95059 
        1.88988         6.26019          1.9353 
        1.89601         6.22831         1.92016 
        1.90215         6.19921         1.90518 
        1.90829         6.16647         1.89036 
        1.91442         6.14045          1.8757 
        1.92056         6.12008          1.8612 
         1.9267         6.08093         1.84685 
        1.93284         6.05644         1.83263 
        1.93897         6.02448          1.8186 
        1.94509         6.00686         1.80474 
        1.95123         5.97517         1.79099 
        1.95737         5.94206         1.77738 
        1.96349         5.92689         1.76394 
        1.96964         5.89605          1.7506 
        1.97578         5.86408         1.73739 
        1.98192         5.84819         1.72435 
        1.98805         5.82489         1.71144 
        1.99419         5.79461         1.69866 
        2.00033          5.7835         1.68601 
        2.00647         5.74815         1.67349 
         2.0126         5.72854         1.66112 
        2.01874         5.69808         1.64885 
        2.02488         5.68067          1.6367 
        2.03101         5.64488         1.62469 
        2.03714         5.61811         1.61282 
        2.04328         5.59896         1.60105 
        2.04941         5.56957         1.58941 
        2.05554         5.55252         1.57789 
        2.06167         5.52728         1.56647 
        2.06781         5.50868         1.55517 
        2.07396         5.49501         1.54395 
        2.08009         5.46465         1.53287 
        2.08622         5.43582         1.52191 
        2.09237         5.42125         1.51104 
        2.09851         5.40459         1.50027 
        2.10464          5.3766         1.48963 
        2.11077         5.34282          1.4791 
        2.11691         5.32429         1.46864 
        2.12305         5.31001         1.45829 
        2.12918         5.29632         1.44807 
        2.13531         5.26856         1.43794 
        2.14145         5.24934         1.42788 
         2.1476         5.22092         1.41791 
        2.15372         5.20297         1.40809 
        2.15985         5.20015         1.39834 
        2.16599         5.15864         1.38867 
        2.17213         5.14803         1.37909 
        2.17827         5.13208         1.36961 
         2.1844         5.10548         1.36022 
        2.19054         5.07717         1.35092 
        2.19666         5.06182         1.34172 
         2.2028         5.04421          1.3326 
        2.20893         5.02919         1.32356 
        2.21508         5.00273         1.31459 
        2.22122         4.98141          1.3057 
        2.22736         4.96618         1.29691 
        2.23349         4.95729         1.28821 
        2.23962         4.93457         1.27958 
        2.24577         4.90946         1.27102 
         2.2519         4.90131         1.26256 
        2.25802         4.87239         1.25418 
        2.26417         4.85662         1.24586 
        2.27031         4.83559          1.2376 
        2.27644         4.81486         1.22945 
        2.28257         4.79892         1.22136 
        2.28872         4.78816         1.21334 
        2.29486         4.76797         1.20539 
        2.30099         4.74801         1.19753 
        2.30712         4.73134         1.18973 
        2.31326         4.70337         1.18199 
         2.3194         4.69513         1.17433 
        2.32553         4.68184         1.16674 
        2.33166         4.66728         1.15923 
         2.3378         4.64377         1.15177 
        2.34394         4.62871         1.14437 
        2.35007         4.60554         1.13705 
        2.35619         4.59686         1.12981 
        2.36233         4.57878          1.1226 
        2.36848          4.5586         1.11545 
        2.37462         4.55096         1.10838 
        2.38075         4.53253         1.10137 
        2.38689         4.51764         1.09442 
        2.39303         4.49501         1.08752 
        2.39916         4.48065          1.0807 
        2.40529         4.46513         1.07393 
        2.41143         4.45036         1.06722 
        2.41757         4.44594         1.06056 
         2.4237         4.42586         1.05397 
        2.42983         4.39839         1.04744 
        2.43598         4.38963         1.04095 
        2.44211         4.37136         1.03452 
        2.44823         4.35953         1.02816 
        2.45437         4.34197         1.02183 
        2.46052         4.32794         1.01556 
        2.46665         4.31529         1.00934 
        2.47279         4.29588         1.00319 
        2.47892         4.28129        0.997076 
        2.48507         4.27148        0.991011 
         2.4912         4.25073        0.985007 
