# k  (h/Mpc)    Pcb(k)  (Mpc/h)^3    Pcb_linear(k)  (Mpc/h)^3
     0.00783031         17098.6         17353.9 
       0.013688         21545.8         21343.6 
       0.019231         21539.8         21508.6 
      0.0249154         19325.2         19775.7 
      0.0312784         16798.1         17020.8 
      0.0375637         14408.9         14432.7 
      0.0433917         12290.6         12547.8 
      0.0492413         11095.6         11203.1 
      0.0555754          9858.9         10220.7 
      0.0619321         9475.18         9497.85 
       0.067871          8569.3         8868.04 
      0.0738098          7901.3         8171.96 
      0.0800417         7030.58         7351.45 
      0.0862327         6328.12         6505.59 
      0.0921407         5732.33         5754.96 
      0.0982031         5083.78         5111.74 
       0.104506         4753.11         4610.93 
       0.110769         4395.13         4269.14 
       0.116806         4148.04         4043.49 
       0.122832         3959.28         3865.92 
       0.129052         3679.28          3681.8 
       0.135211         3483.86         3467.32 
       0.141259         3322.04            3221 
       0.147318            3113         2955.64 
       0.153489         2837.98         2693.61 
       0.159709         2673.33         2463.36 
       0.165845          2568.6         2283.19 
       0.171974         2428.61         2150.03 
       0.178125         2313.69         2052.81 
       0.184229         2215.05         1976.26 
        0.19034          2101.5         1903.25 
       0.196428         2056.94         1822.56 
       0.202534         1975.16         1729.41 
       0.208729         1882.48         1625.45 
       0.214876         1803.78         1520.66 
       0.220989         1738.15         1423.38 
       0.227147         1665.44         1338.75 
        0.23329         1599.36         1270.07 
       0.239377         1574.55         1216.01 
       0.245482         1478.34         1171.59 
       0.251667         1470.89         1131.29 
       0.257832         1412.73         1091.07 
       0.263955         1365.87         1048.36 
       0.270079         1318.61         1002.49 
        0.27624         1302.76          954.69 
       0.282372         1248.72         908.084 
        0.28843         1241.06         865.351 
       0.294538         1179.42         827.194 
       0.300721         1171.95          793.96 
        0.30691         1127.27         765.324 
       0.313033         1104.89         740.098 
       0.319153         1086.32         716.321 
       0.325316         1051.08         692.533 
        0.33145          1027.6         668.344 
       0.337538         1008.84         643.853 
       0.343633         987.203           619.4 
       0.349808         953.652         595.452 
       0.355968         946.871         573.113 
       0.362074         937.888         552.844 
       0.368217         908.116          534.42 
       0.374374         874.479         517.586 
       0.380519         876.025         501.944 
       0.386598         850.712         487.146 
       0.392688         847.721         472.584 
        0.39888         823.106         457.904 
       0.405048         812.965         443.427 
       0.411186         801.688         429.301 
       0.417313         784.823         415.731 
       0.423458         770.716          402.83 
       0.429607         761.473         390.701 
       0.435692         745.265         379.487 
       0.441815         738.712         368.883 
       0.447964         723.739          358.75 
       0.454126         717.205         348.973 
       0.460267         699.368         339.511 
       0.466387         691.065         330.282 
        0.47254         686.781         321.203 
       0.478662         679.668         312.429 
       0.484765         659.371         303.997 
       0.490885         655.224         295.887 
       0.497035         641.872         288.099 
       0.503198         637.757         280.668 
       0.509342         631.374         273.597 
       0.515458         627.518         266.834 
       0.521598         611.609         260.265 
       0.527764         601.275         253.862 
       0.533884         598.965         247.689 
           0.54          592.64         241.697 
       0.546137         587.829         235.858 
       0.552299         579.637         230.177 
       0.558452         575.361           224.7 
       0.564573         568.166         219.452 
       0.570708         561.462         214.391 
       0.576825         546.754         209.525 
       0.582926         548.623         204.832 
       0.589034         543.222         200.274 
       0.595184         538.543         195.817 
       0.601379         530.477         191.457 
       0.607522         523.073          187.26 
       0.613639         522.776         183.204 
       0.619772         512.079          179.26 
       0.625918         509.294         175.425 
       0.632068         502.164         171.704 
       0.638161         500.187         168.126 
         0.6443         491.865         164.628 
       0.650464         489.681          161.22 
       0.656582          485.28         157.936 
       0.662703         483.849         154.745 
       0.668861         475.802         151.626 
       0.675024         472.007          148.59 
       0.681124         468.451         145.668 
       0.687237         464.655         142.818 
       0.693381         458.361         140.031 
       0.699536         451.554         137.312 
       0.705665          450.67         134.678 
       0.711789          448.53         132.116 
       0.717957          444.37         129.604 
        0.72409         441.998         127.173 
       0.730186          435.58         124.819 
       0.736317         432.669         122.514 
       0.742472         430.249         120.259 
       0.748622         425.603         118.064 
        0.75476         419.743         115.929 
       0.760888         415.922          113.85 
       0.767043         416.228         111.815 
       0.773185          412.01         109.834 
       0.779291         407.133         107.912 
       0.785407         404.968         106.034 
       0.791564         400.316          104.19 
       0.797719         398.351          102.39 
       0.803834         393.766         100.645 
       0.809972         393.111         98.9345 
       0.816124         391.828         97.2604 
       0.822261         386.608         95.6298 
       0.828378         384.326         94.0418 
       0.834502         380.105         92.4889 
       0.840667         377.436         90.9612 
       0.846816         375.886         89.4727 
       0.852925         373.205         88.0271 
       0.859047         371.126         86.6107 
       0.865192         366.534         85.2211 
       0.871341         363.655         83.8614 
       0.877463         363.435         82.5377 
       0.883569          360.05         81.2461 
       0.889708         357.254         79.9758 
       0.895864         356.028         78.7296 
       0.902008         352.736         77.5128 
       0.908149         348.802         76.3226 
       0.914301         346.562         75.1556 
       0.920448         344.836         74.0143 
       0.926574         339.938          72.901 
       0.932687         339.923          71.813 
       0.938823         336.531         70.7435 
       0.944975         336.404         69.6936 
       0.951105         332.791         68.6688 
       0.957225         330.692         67.6666 
       0.963368         326.669         66.6811 
       0.969511         325.875         65.7153 
       0.975621         323.728          64.774 
       0.981748         322.098         63.8488 
       0.987916         320.333          62.936 
        0.99406         315.477         62.0446 
        1.00019         314.272         61.1723 
        1.00632         313.048         60.3177 
        1.01246         310.359         59.4783 
        1.01859         310.833         58.6563 
        1.02471          305.88          57.851 
        1.03085         304.679         57.0581 
        1.03698         303.351         56.2819 
        1.04314         300.671         55.5169 
        1.04929          298.03         54.7681 
        1.05541         298.865         54.0361 
        1.06154         293.725         53.3159 
        1.06769         293.161         52.6077 
        1.07382         290.887         51.9148 
        1.07993         289.333          51.236 
        1.08607          288.56         50.5666 
        1.09222         285.492         49.9085 
        1.09836         283.694          49.263 
        1.10449          281.36         48.6297 
        1.11063         278.655         48.0069 
        1.11677         278.717         47.3953 
         1.1229          276.39         46.7955 
        1.12903          274.85         46.2055 
        1.13518         272.496         45.6254 
        1.14131         270.922         45.0556 
        1.14745         270.095         44.4958 
        1.15359         267.989         43.9456 
        1.15973         266.127         43.4045 
        1.16584          264.26         42.8749 
        1.17197         264.354         42.3535 
        1.17811         260.858         41.8392 
        1.18424         259.246          41.335 
        1.19038         258.657         40.8377 
        1.19652         256.366         40.3488 
        1.20267         255.834         39.8679 
        1.20881         253.707          39.395 
        1.21495          251.94         38.9306 
        1.22108         250.473         38.4737 
         1.2272          249.02         38.0253 
        1.23334          247.95          37.583 
        1.23949         245.632         37.1468 
        1.24562         244.884         36.7187 
        1.25174         243.411         36.2981 
        1.25789         241.509         35.8828 
        1.26402          239.45         35.4747 
        1.27014         238.232         35.0741 
        1.27628         236.849         34.6785 
        1.28244         236.708         34.2882 
        1.28858         234.273         33.9045 
        1.29471         232.988         33.5276 
        1.30084         231.272         33.1568 
        1.30697         230.142         32.7911 
        1.31312          227.94         32.4304 
        1.31925         226.929         32.0762 
        1.32537         226.432         31.7278 
        1.33151         224.277         31.3832 
        1.33765         222.597         31.0441 
        1.34378             222         30.7106 
        1.34992         220.744         30.3818 
        1.35606         220.395         30.0571 
         1.3622         218.094         29.7377 
        1.36833          216.45         29.4238 
        1.37445          215.58         29.1146 
        1.38059         213.795         28.8089 
        1.38675         213.036         28.5069 
        1.39288         211.902         28.2104 
        1.39901         210.913         27.9183 
        1.40515         209.244         27.6296 
         1.4113          208.21         27.3452 
        1.41742         206.621         27.0659 
        1.42355         205.719           26.79 
         1.4297         203.933         26.5171 
        1.43585         203.083         26.2482 
        1.44198         202.344          25.984 
        1.44809         200.956          25.724 
        1.45423          200.04         25.4665 
        1.46036          198.67         25.2131 
        1.46649         197.385         24.9631 
        1.47263         196.324         24.7162 
        1.47877         194.892         24.4729 
        1.48491          193.22         24.2324 
        1.49104         192.876         23.9957 
        1.49718         191.148         23.7619 
        1.50333         190.542         23.5309 
        1.50947         189.271         23.3035 
         1.5156         187.862         23.0794 
        1.52172         187.223         22.8583 
        1.52787         185.465         22.6396 
          1.534         185.223         22.4241 
        1.54013         183.741         22.2116 
        1.54627         182.659         22.0014 
        1.55241         181.571          21.794 
        1.55855         180.336         21.5895 
        1.56467         179.267         21.3883 
         1.5708          178.51          21.189 
        1.57695         177.714          20.992 
        1.58308         176.528          20.798 
        1.58922         175.372         20.6062 
        1.59535         173.968          20.417 
         1.6015         173.396         20.2299 
        1.60764         172.365         20.0453 
        1.61376         171.473         19.8634 
        1.61989         170.571         19.6837 
        1.62604         169.295         19.5059 
        1.63218         168.659         19.3303 
        1.63831         167.311         19.1573 
        1.64444         166.591         18.9864 
        1.65059         165.658         18.8171 
        1.65673         164.534         18.6501 
        1.66285         163.509         18.4856 
        1.66898         162.638         18.3231 
        1.67512         162.151         18.1621 
        1.68127         160.599          18.003 
         1.6874         159.895         17.8462 
        1.69353         158.934         17.6913 
        1.69967         157.792         17.5378 
        1.70581         157.181         17.3863 
        1.71193         156.089         17.2371 
        1.71806         155.455         17.0894 
        1.72421         154.498         16.9431 
        1.73035         153.894         16.7987 
        1.73649         152.922          16.656 
        1.74262         151.951         16.5151 
        1.74876         150.969         16.3757 
        1.75489          150.28         16.2382 
        1.76101         148.934         16.1024 
        1.76715         148.788         15.9679 
        1.77329         147.756         15.8348 
        1.77943         147.091         15.7032 
        1.78557         146.279         15.5732 
        1.79171         145.463         15.4447 
        1.79785         144.476         15.3177 
        1.80399         143.693         15.1921 
        1.81012         142.903         15.0681 
        1.81625         142.404         14.9455 
        1.82239         141.359         14.8241 
        1.82853         140.744         14.7041 
        1.83466          139.83         14.5856 
        1.84078         139.138         14.4685 
        1.84692         137.909         14.3525 
        1.85306         137.767         14.2376 
         1.8592          136.77         14.1242 
        1.86533         136.153         14.0121 
        1.87147         135.021         13.9011 
        1.87761         134.208         13.7912 
        1.88375         133.536         13.6826 
        1.88988         132.586         13.5754 
        1.89601         132.293         13.4692 
        1.90215         131.398         13.3641 
        1.90829          130.63         13.2601 
        1.91442         130.111         13.1572 
        1.92056         129.233         13.0556 
         1.9267         128.615         12.9549 
        1.93284         127.661         12.8552 
        1.93897          127.19         12.7567 
        1.94509         126.598         12.6595 
        1.95123         125.957         12.5631 
        1.95737         125.207         12.4676 
        1.96349         124.533         12.3733 
        1.96964         123.546         12.2797 
        1.97578         122.845         12.1871 
        1.98192         122.397         12.0956 
        1.98805         121.743         12.0051 
        1.99419         121.004         11.9154 
        2.00033         120.357         11.8267 
        2.00647         119.814         11.7389 
         2.0126         118.852         11.6521 
        2.01874         118.292          11.566 
        2.02488         118.023         11.4808 
        2.03101          116.88         11.3966 
        2.03714         116.533         11.3133 
        2.04328         115.677         11.2307 
        2.04941         115.182         11.1491 
        2.05554         114.426         11.0683 
        2.06167         114.071         10.9882 
        2.06781         113.198         10.9089 
        2.07396         112.771         10.8302 
        2.08009         112.076         10.7525 
        2.08622         111.292         10.6756 
        2.09237         110.919         10.5993 
        2.09851          110.26         10.5238 
        2.10464         109.829         10.4491 
        2.11077         109.148         10.3753 
        2.11691         108.657         10.3019 
        2.12305         108.004         10.2293 
        2.12918         107.256         10.1576 
        2.13531         106.697         10.0866 
        2.14145         106.089          10.016 
         2.1476         105.368         9.94608 
        2.15372         105.113         9.87716 
        2.15985         104.513         9.80882 
        2.16599         103.773         9.74094 
        2.17213         103.355         9.67377 
        2.17827         102.778         9.60725 
         2.1844         102.025         9.54141 
        2.19054          101.72         9.47617 
        2.19666         101.194         9.41163 
         2.2028          100.52         9.34764 
        2.20893         100.179         9.28421 
        2.21508         99.5306          9.2213 
        2.22122         99.0064         9.15896 
        2.22736         98.4521         9.09732 
        2.23349         98.0384         9.03626 
        2.23962         97.5504         8.97574 
        2.24577         96.9104         8.91571 
         2.2519         96.6142         8.85632 
        2.25802         95.7339         8.79757 
        2.26417         95.4933         8.73919 
        2.27031         94.8671         8.68128 
        2.27644         94.3729         8.62407 
        2.28257         93.8051         8.56738 
        2.28872          93.528          8.5111 
        2.29486         92.8266         8.45533 
        2.30099         92.3171         8.40017 
        2.30712         91.9044         8.34549 
        2.31326         91.3554          8.2912 
         2.3194         90.8926         8.23742 
        2.32553         90.5023         8.18422 
        2.33166         90.0172          8.1315 
         2.3378         89.5469         8.07918 
        2.34394         89.0961         8.02731 
        2.35007         88.6079         7.97596 
        2.35619         88.2157         7.92513 
        2.36233         87.6676         7.87462 
        2.36848         87.1455         7.82444 
        2.37462         86.8069         7.77481 
        2.38075         86.2223         7.72566 
        2.38689         85.7976         7.67689 
        2.39303         85.2616         7.62855 
        2.39916         84.9843         7.58067 
        2.40529         84.7015         7.53321 
        2.41143         84.0094         7.48613 
        2.41757         83.6791         7.43942 
         2.4237         83.2418          7.3932 
        2.42983         82.7416         7.34737 
        2.43598         82.2438         7.30182 
        2.44211         82.1341         7.25672 
        2.44823         81.5503         7.21211 
        2.45437          80.907         7.16775 
        2.46052         80.5357         7.12372 
        2.46665           80.33         7.08015 
        2.47279         79.7448         7.03695 
        2.47892         79.4118         6.99409 
        2.48507         79.0228         6.95154 
         2.4912         78.6652         6.90943 
