# k  (h/Mpc)    Pcb(k)  (Mpc/h)^3    Pcb_linear(k)  (Mpc/h)^3
     0.00783031         64.4873         65.0564 
       0.013688         79.7402         80.1091 
       0.019231         80.7054         80.8058 
      0.0249154         74.1582          74.351 
      0.0312784         64.0432         64.0285 
      0.0375637          54.411         54.3109 
      0.0433917         47.2873         47.2285 
      0.0492413         42.2394         42.1742 
      0.0555754         38.4862         38.4809 
      0.0619321         35.8101          35.763 
       0.067871         33.3673         33.3939 
      0.0738098         30.7372         30.7746 
      0.0800417         27.6436         27.6861 
      0.0862327         24.4945         24.5016 
      0.0921407         21.6885         21.6753 
      0.0982031         19.2595         19.2532 
       0.104506         17.4048         17.3674 
       0.110769         16.1045         16.0803 
       0.116806         15.2224         15.2306 
       0.122832         14.5646         14.5619 
       0.129052         13.8495         13.8685 
       0.135211         13.0365         13.0608 
       0.141259          12.126          12.133 
       0.147318         11.1431         11.1336 
       0.153489         10.1516         10.1467 
       0.159709         9.28594         9.27942 
       0.165845         8.62538         8.60077 
       0.171974         8.10133          8.0992 
       0.178125         7.73625         7.73301 
       0.184229         7.45117         7.44465 
        0.19034         7.15816         7.16962 
       0.196428         6.86229         6.86569 
       0.202534         6.52716         6.51481 
       0.208729         6.12638         6.12323 
       0.214876         5.72414         5.72848 
       0.220989         5.37594         5.36206 
       0.227147           5.042         5.04326 
        0.23329          4.7838         4.78455 
       0.239377          4.5807          4.5809 
       0.245482         4.40988         4.41356 
       0.251667         4.26542         4.26175 
       0.257832         4.10865         4.11025 
       0.263955         3.95046         3.94934 
       0.270079          3.7792         3.77654 
        0.27624         3.60572         3.59649 
       0.282372         3.43012         3.42092 
        0.28843         3.26333         3.25994 
       0.294538         3.12039          3.1162 
       0.300721         3.00007           2.991 
        0.30691         2.88716         2.88313 
       0.313033         2.79173          2.7881 
       0.319153         2.69288         2.69853 
       0.325316         2.61664         2.60892 
        0.33145         2.52347         2.51779 
       0.337538         2.43065         2.42553 
       0.343633         2.33627         2.33342 
       0.349808         2.24833          2.2432 
       0.355968         2.16593         2.15905 
       0.362074         2.08757         2.08269 
       0.368217         2.01837         2.01328 
       0.374374         1.95056         1.94987 
       0.380519         1.89569         1.89094 
       0.386598           1.841         1.83519 
       0.392688          1.7883         1.78033 
        0.39888         1.73072         1.72503 
       0.405048         1.67675          1.6705 
       0.411186          1.6243         1.61728 
       0.417313         1.57115         1.56616 
       0.423458         1.52506         1.51756 
       0.429607         1.47684         1.47187 
       0.435692         1.43443         1.42962 
       0.441815         1.39466         1.38968 
       0.447964         1.35955          1.3515 
       0.454126         1.31956         1.31467 
       0.460267         1.28307         1.27903 
       0.466387         1.24778         1.24426 
        0.47254         1.21421         1.21005 
       0.478662         1.18234           1.177 
       0.484765         1.14917         1.14524 
       0.490885         1.11956         1.11468 
       0.497035         1.09292         1.08534 
       0.503198         1.06294         1.05735 
       0.509342         1.03802         1.03071 
       0.515458         1.01047         1.00523 
       0.521598        0.986067        0.980487 
       0.527764        0.960273        0.956365 
       0.533884        0.939857         0.93311 
           0.54        0.916679        0.910537 
       0.546137        0.895373        0.888538 
       0.552299        0.873234        0.867138 
       0.558452        0.851319        0.846504 
       0.564573        0.832594        0.826736 
       0.570708        0.813557        0.807668 
       0.576825        0.794736        0.789338 
       0.582926         0.77834        0.771658 
       0.589034         0.75827        0.754488 
       0.595184        0.742028        0.737695 
       0.601379        0.726133         0.72127 
       0.607522        0.711432        0.705459 
       0.613639        0.697111         0.69018 
       0.619772        0.680254         0.67532 
       0.625918        0.666286        0.660875 
       0.632068        0.653115        0.646854 
       0.638161        0.638915        0.633376 
         0.6443        0.625724        0.620198 
       0.650464        0.611837         0.60736 
       0.656582         0.60021         0.59499 
       0.662703        0.588469        0.582969 
       0.668861         0.57769        0.571217 
       0.675024        0.565446        0.559781 
       0.681124        0.553188        0.548773 
       0.687237        0.543682        0.538036 
       0.693381        0.533461        0.527534 
       0.699536        0.521543        0.517294 
       0.705665        0.511808         0.50737 
       0.711789        0.503299        0.497719 
       0.717957        0.492848        0.488255 
        0.72409        0.484333        0.479095 
       0.730186        0.474798         0.47023 
       0.736317        0.467339        0.461544 
       0.742472        0.458445         0.45305 
       0.748622        0.449969         0.44478 
        0.75476        0.441102        0.436736 
       0.760888        0.433244        0.428906 
       0.767043         0.42734        0.421238 
       0.773185        0.418773        0.413775 
       0.779291         0.41138        0.406536 
       0.785407         0.40461        0.399462 
       0.791564        0.397681        0.392512 
       0.797719        0.391132        0.385733 
       0.803834        0.384682        0.379158 
       0.809972        0.377876        0.372714 
       0.816124        0.371411        0.366407 
       0.822261         0.36487        0.360265 
       0.828378        0.359371        0.354282 
       0.834502        0.353778        0.348432 
       0.840667        0.347344        0.342677 
       0.846816        0.341918        0.337069 
       0.852925        0.337188        0.331623 
       0.859047        0.331782        0.326287 
       0.865192        0.325877        0.321052 
       0.871341        0.320598         0.31593 
       0.877463        0.316474        0.310943 
       0.883569        0.311123        0.306077 
       0.889708        0.306379        0.301292 
       0.895864        0.301484        0.296597 
       0.902008        0.296897        0.292013 
       0.908149        0.292249        0.287529 
       0.914301        0.287173        0.283133 
       0.920448        0.283324        0.278833 
       0.926574        0.278947        0.274639 
       0.932687        0.274634         0.27054 
       0.938823        0.271449        0.266511 
       0.944975        0.267283        0.262556 
       0.951105        0.263482        0.258695 
       0.957225        0.260103        0.254919 
       0.963368        0.256028        0.251207 
       0.969511         0.25199        0.247568 
       0.975621        0.248441        0.244022 
       0.981748        0.245651        0.240537 
       0.987916        0.241949        0.237098 
        0.99406        0.238363         0.23374 
        1.00019        0.235395        0.230454 
        1.00632        0.231624        0.227234 
        1.01246        0.228282        0.224072 
        1.01859        0.225575        0.220975 
        1.02471        0.222518        0.217941 
        1.03085         0.21998        0.214954 
        1.03698        0.216587         0.21203 
        1.04314        0.213751        0.209148 
        1.04929         0.21074        0.206327 
        1.05541        0.208368         0.20357 
        1.06154        0.205297        0.200856 
        1.06769        0.202423        0.198188 
        1.07382        0.199981        0.195578 
        1.07993        0.197187        0.193021 
        1.08607        0.195257        0.190499 
        1.09222         0.19236         0.18802 
        1.09836        0.190353        0.185588 
        1.10449        0.187896        0.183202 
        1.11063        0.185097        0.180856 
        1.11677          0.1827        0.178552 
         1.1229        0.180668        0.176292 
        1.12903        0.178312         0.17407 
        1.13518        0.176314        0.171884 
        1.14131        0.173977        0.169737 
        1.14745        0.171418        0.167629 
        1.15359        0.169651        0.165556 
        1.15973        0.167303        0.163517 
        1.16584        0.165718        0.161522 
        1.17197        0.163682        0.159558 
        1.17811        0.161922        0.157621 
        1.18424        0.160232        0.155721 
        1.19038        0.158044        0.153847 
        1.19652        0.155809        0.152006 
        1.20267        0.154468        0.150194 
        1.20881         0.15266        0.148413 
        1.21495        0.151039        0.146663 
        1.22108        0.149026        0.144942 
         1.2272        0.147545        0.143252 
        1.23334        0.145727        0.141586 
        1.23949        0.144102        0.139943 
        1.24562        0.142479         0.13833 
        1.25174         0.14096        0.136745 
        1.25789        0.139625        0.135181 
        1.26402        0.137619        0.133644 
        1.27014        0.136309        0.132134 
        1.27628         0.13486        0.130644 
        1.28244        0.133099        0.129174 
        1.28858        0.131794        0.127728 
        1.29471        0.130656        0.126308 
        1.30084        0.128924        0.124911 
        1.30697        0.127591        0.123534 
        1.31312        0.125927        0.122175 
        1.31925        0.124724         0.12084 
        1.32537        0.123534        0.119528 
        1.33151        0.122283         0.11823 
        1.33765        0.121013        0.116952 
        1.34378        0.119635        0.115696 
        1.34992        0.118343        0.114457 
        1.35606        0.117136        0.113234 
         1.3622        0.115982        0.112031 
        1.36833        0.114733        0.110848 
        1.37445        0.113319        0.109683 
        1.38059        0.112304        0.108532 
        1.38675        0.111469        0.107394 
        1.39288        0.110228        0.106277 
        1.39901        0.109059        0.105176 
        1.40515        0.108138        0.104089 
         1.4113        0.106764        0.103017 
        1.41742        0.105767        0.101965 
        1.42355        0.104869        0.100926 
         1.4297        0.103708       0.0998978 
        1.43585        0.102723       0.0988845 
        1.44198        0.101809       0.0978893 
        1.44809         0.10071       0.0969097 
        1.45423       0.0997916       0.0959399 
        1.46036       0.0988351       0.0949852 
        1.46649        0.098067       0.0940432 
        1.47263       0.0969866       0.0931133 
        1.47877       0.0958461       0.0921964 
        1.48491       0.0951001       0.0912905 
        1.49104       0.0940594       0.0903987 
        1.49718       0.0930913       0.0895181 
        1.50333       0.0924856       0.0886479 
        1.50947       0.0914516       0.0877911 
         1.5156       0.0906105       0.0869469 
        1.52172       0.0897815       0.0861138 
        1.52787       0.0889487         0.08529 
          1.534       0.0880221        0.084478 
        1.54013       0.0872584       0.0836774 
        1.54627       0.0866462       0.0828858 
        1.55241       0.0856659       0.0821044 
        1.55855       0.0848235       0.0813341 
        1.56467       0.0843269       0.0805759 
         1.5708       0.0834782       0.0798252 
        1.57695       0.0826535        0.079083 
        1.58308       0.0818835        0.078352 
        1.58922       0.0812201       0.0776298 
        1.59535       0.0804798       0.0769169 
         1.6015       0.0796892       0.0762121 
        1.60764       0.0790939       0.0755164 
        1.61376       0.0782978       0.0748314 
        1.61989       0.0776806       0.0741544 
        1.62604       0.0770657       0.0734843 
        1.63218       0.0763712       0.0728229 
        1.63831       0.0756758       0.0721712 
        1.64444       0.0750592       0.0715272 
        1.65059       0.0744426       0.0708896 
        1.65673       0.0738134       0.0702605 
        1.66285       0.0732723       0.0696408 
        1.66898       0.0725942       0.0690284 
        1.67512       0.0718774       0.0684221 
        1.68127       0.0712376       0.0678227 
         1.6874       0.0707324       0.0672317 
        1.69353       0.0699931       0.0666482 
        1.69967       0.0696712       0.0660702 
        1.70581       0.0688246       0.0654993 
        1.71193        0.068331       0.0649374 
        1.71806       0.0677162       0.0643808 
        1.72421       0.0673634       0.0638297 
        1.73035        0.066657       0.0632857 
        1.73649       0.0662302       0.0627481 
        1.74262        0.065628       0.0622172 
        1.74876       0.0650712       0.0616922 
        1.75489       0.0646628       0.0611743 
        1.76101        0.064036       0.0606625 
        1.76715       0.0634881       0.0601558 
        1.77329       0.0629256       0.0596544 
        1.77943       0.0625133       0.0591585 
        1.78557       0.0620509        0.058669 
        1.79171       0.0615558       0.0581849 
        1.79785       0.0610782       0.0577062 
        1.80399       0.0605578        0.057233 
        1.81012       0.0601166       0.0567658 
        1.81625       0.0596143        0.056304 
        1.82239       0.0591291       0.0558467 
        1.82853       0.0586886       0.0553947 
        1.83466       0.0582329       0.0549482 
        1.84078       0.0577949       0.0545071 
        1.84692       0.0572881       0.0540701 
        1.85306       0.0569358       0.0536373 
         1.8592       0.0564033         0.05321 
        1.86533       0.0560687       0.0527877 
        1.87147        0.055589       0.0523694 
        1.87761       0.0552839       0.0519554 
        1.88375       0.0548575       0.0515465 
        1.88988       0.0543467       0.0511424 
        1.89601       0.0539735       0.0507424 
        1.90215       0.0535597       0.0503463 
        1.90829       0.0531079       0.0499547 
        1.91442       0.0528483       0.0495672 
        1.92056       0.0523711       0.0491842 
         1.9267       0.0519598       0.0488049 
        1.93284       0.0516001       0.0484293 
        1.93897       0.0512255       0.0480584 
        1.94509       0.0509082       0.0476921 
        1.95123       0.0504842       0.0473288 
        1.95737       0.0501388        0.046969 
        1.96349       0.0497408       0.0466139 
        1.96964       0.0494027       0.0462614 
        1.97578       0.0490301       0.0459125 
        1.98192       0.0487356       0.0455678 
        1.98805       0.0483573       0.0452266 
        1.99419       0.0479658        0.044889 
        2.00033       0.0476322       0.0445546 
        2.00647       0.0474242       0.0442237 
         2.0126       0.0469591       0.0438968 
        2.01874       0.0467356       0.0435727 
        2.02488       0.0463855       0.0432515 
        2.03101       0.0460656       0.0429343 
        2.03714       0.0456407       0.0426205 
        2.04328       0.0454707       0.0423094 
        2.04941       0.0450242       0.0420018 
        2.05554       0.0448202       0.0416974 
        2.06167       0.0445263       0.0413957 
        2.06781       0.0441591       0.0410969 
        2.07396       0.0438863       0.0408006 
        2.08009       0.0435877       0.0405078 
        2.08622       0.0433108       0.0402182 
        2.09237       0.0430007       0.0399309 
        2.09851       0.0426996       0.0396463 
        2.10464        0.042476       0.0393649 
        2.11077       0.0421348       0.0390867 
        2.11691       0.0418294       0.0388105 
        2.12305       0.0415781        0.038537 
        2.12918       0.0413472       0.0382667 
        2.13531       0.0410047       0.0379991 
        2.14145        0.040717       0.0377333 
         2.1476       0.0404622       0.0374698 
        2.15372       0.0402743       0.0372102 
        2.15985       0.0399338       0.0369527 
        2.16599       0.0396724        0.036697 
        2.17213       0.0394312       0.0364439 
        2.17827       0.0391618       0.0361933 
         2.1844       0.0389781       0.0359453 
        2.19054       0.0386959       0.0356995 
        2.19666       0.0384135       0.0354564 
         2.2028       0.0381527       0.0352153 
        2.20893       0.0379756       0.0349764 
        2.21508       0.0377304       0.0347394 
        2.22122       0.0374415       0.0345045 
        2.22736        0.037246       0.0342723 
        2.23349       0.0369997       0.0340423 
        2.23962       0.0368328       0.0338143 
        2.24577       0.0365498       0.0335881 
         2.2519       0.0363252       0.0333644 
        2.25802       0.0360956       0.0331431 
        2.26417       0.0358709       0.0329231 
        2.27031       0.0356095        0.032705 
        2.27644       0.0353817       0.0324894 
        2.28257       0.0352249       0.0322759 
        2.28872        0.035008       0.0320638 
        2.29486       0.0348235       0.0318537 
        2.30099       0.0345798       0.0316459 
        2.30712       0.0342858       0.0314399 
        2.31326       0.0341256       0.0312354 
         2.3194       0.0339782       0.0310328 
        2.32553       0.0337338       0.0308324 
        2.33166        0.033589       0.0306338 
         2.3378        0.033368       0.0304367 
        2.34394        0.033128       0.0302413 
        2.35007       0.0329123       0.0300478 
        2.35619       0.0326708       0.0298563 
        2.36233       0.0325687        0.029666 
        2.36848       0.0324249        0.029477 
        2.37462       0.0321662         0.02929 
        2.38075       0.0319812       0.0291048 
        2.38689       0.0318027       0.0289211 
        2.39303       0.0316352        0.028739 
        2.39916       0.0314314       0.0285587 
        2.40529       0.0312752       0.0283799 
        2.41143       0.0310513       0.0282025 
        2.41757        0.030876       0.0280265 
         2.4237       0.0307565       0.0278524 
        2.42983       0.0305875       0.0276797 
        2.43598       0.0304285       0.0275081 
        2.44211       0.0301905       0.0273382 
        2.44823       0.0300406       0.0271702 
        2.45437       0.0298627        0.027003 
        2.46052       0.0297026       0.0268372 
        2.46665       0.0294958        0.026673 
        2.47279       0.0293275       0.0265103 
        2.47892         0.02915       0.0263488 
        2.48507       0.0289883       0.0261885 
         2.4912        0.028858       0.0260299 
