# k  (h/Mpc)    P(k)  (Mpc/h)^3    P_linear(k)  (Mpc/h)^3
     0.00783031         7466.88         7581.28 
       0.013688          9342.3         9315.58 
       0.019231         9383.64         9383.47 
      0.0249154         8495.91         8625.22 
      0.0312784         7371.96         7422.36 
      0.0375637         6299.59         6293.02 
      0.0433917         5412.43         5470.75 
      0.0492413         4867.27          4884.2 
      0.0555754         4369.29         4455.69 
      0.0619321         4155.47         4140.44 
       0.067871         3799.88         3865.79 
      0.0738098         3500.41         3562.28 
      0.0800417          3126.4         3204.55 
      0.0862327         2796.89          2835.8 
      0.0921407         2506.08         2508.57 
      0.0982031         2217.21         2228.17 
       0.104506         2049.14         2009.85 
       0.110769         1893.96         1860.85 
       0.116806         1779.55         1762.49 
       0.122832         1707.84         1685.08 
       0.129052         1599.03         1604.82 
       0.135211         1510.67         1511.32 
       0.141259         1426.54         1403.95 
       0.147318         1325.39         1288.29 
       0.153489         1204.88         1174.07 
       0.159709         1122.53         1073.71 
       0.165845         1063.98         995.175 
       0.171974         998.035         937.134 
       0.178125         953.848         894.757 
       0.184229         919.262         861.388 
        0.19034         863.973         829.562 
       0.196428          845.95         794.392 
       0.202534         815.104         753.789 
       0.208729         768.569         708.477 
       0.214876         722.799           662.8 
       0.220989         694.002         620.401 
       0.227147         654.591         583.514 
        0.23329         626.481          553.58 
       0.239377         611.152         530.016 
       0.245482          572.26         510.653 
       0.251667         566.492         493.088 
       0.257832         546.995         475.558 
       0.263955         527.594         456.939 
       0.270079         507.294         436.946 
        0.27624         498.286         416.113 
       0.282372         477.013         395.798 
        0.28843         461.597         377.173 
       0.294538         439.715         360.542 
       0.300721         435.424         346.057 
        0.30691         415.343         333.574 
       0.313033         406.398         322.579 
       0.319153         391.963         312.216 
       0.325316         381.594         301.848 
        0.33145         369.448         291.304 
       0.337538         364.067          280.63 
       0.343633         351.675         269.972 
       0.349808         340.028         259.532 
       0.355968          335.18         249.797 
       0.362074         327.101         240.962 
       0.368217         318.178         232.932 
       0.374374         306.613         225.594 
       0.380519         302.469         218.777 
       0.386598         294.805         212.327 
       0.392688         291.466          205.98 
        0.39888         283.552         199.582 
       0.405048         277.007         193.271 
       0.411186         271.093         187.115 
       0.417313         265.768         181.199 
       0.423458         260.444         175.577 
       0.429607         254.644          170.29 
       0.435692         247.424         165.403 
       0.441815         245.543         160.781 
       0.447964         240.916         156.364 
       0.454126         231.482         152.103 
       0.460267         228.774         147.979 
       0.466387         225.924         143.956 
        0.47254         220.982         139.999 
       0.478662         219.603         136.175 
       0.484765         212.875           132.5 
       0.490885         209.896         128.965 
       0.497035         206.907          125.57 
       0.503198         201.748         122.331 
       0.509342         199.299         119.249 
       0.515458         196.547         116.301 
       0.521598         193.369         113.439 
       0.527764         190.464         110.648 
       0.533884         187.766         107.957 
           0.54         184.795         105.346 
       0.546137         183.543           102.8 
       0.552299         180.087         100.324 
       0.558452         177.411         97.9371 
       0.564573         174.449         95.6497 
       0.570708         171.453         93.4439 
       0.576825         169.319         91.3231 
       0.582926         166.599         89.2776 
       0.589034         164.417         87.2912 
       0.595184         162.578         85.3482 
       0.601379         160.812         83.4479 
       0.607522         157.318         81.6186 
       0.613639         156.657         79.8509 
       0.619772         153.249         78.1316 
       0.625918         151.729         76.4604 
       0.632068         149.997         74.8382 
       0.638161          148.76         73.2788 
         0.6443         146.638         71.7541 
       0.650464         145.095         70.2689 
       0.656582          143.33         68.8377 
       0.662703          141.33         67.4469 
       0.668861         139.349         66.0872 
       0.675024         137.782         64.7642 
       0.681124         136.843         63.4906 
       0.687237         134.411         62.2483 
       0.693381         132.649         61.0333 
       0.699536          131.62         59.8485 
       0.705665         131.718         58.7005 
       0.711789          128.54         57.5838 
       0.717957         128.092         56.4889 
        0.72409         126.239         55.4291 
       0.730186         124.233         54.4034 
       0.736317         123.693         53.3986 
       0.742472         122.737         52.4158 
       0.748622         121.567          51.459 
        0.75476         120.417         50.5284 
       0.760888         118.717         49.6224 
       0.767043         117.947         48.7353 
       0.773185         116.664         47.8718 
       0.779291         115.203         47.0344 
       0.785407         114.489         46.2159 
       0.791564         113.373         45.4118 
       0.797719          111.67         44.6275 
       0.803834         111.186         43.8668 
       0.809972         109.666         43.1213 
       0.816124         109.334         42.3916 
       0.822261         108.213         41.6809 
       0.828378         107.214         40.9888 
       0.834502         106.595         40.3119 
       0.840667         105.264         39.6461 
       0.846816          104.15         38.9973 
       0.852925          103.39         38.3672 
       0.859047         102.121         37.7499 
       0.865192          101.64         37.1442 
       0.871341          100.75         36.5515 
       0.877463          99.596         35.9746 
       0.883569         98.9438         35.4117 
       0.889708         98.2667          34.858 
       0.895864          97.416         34.3148 
       0.902008         96.6239         33.7845 
       0.908149         96.0656         33.2657 
       0.914301         95.0507         32.7571 
       0.920448         94.4174         32.2596 
       0.926574         93.7004         31.7744 
       0.932687          93.389         31.3002 
       0.938823         91.9343          30.834 
       0.944975         91.2701         30.3764 
       0.951105         90.6772         29.9298 
       0.957225         89.5986         29.4929 
       0.963368         89.2223         29.0634 
       0.969511           88.85         28.6425 
       0.975621         88.3823         28.2322 
       0.981748         87.5413         27.8289 
       0.987916         86.7485         27.4311 
        0.99406         86.2091         27.0425 
        1.00019         85.4469         26.6623 
        1.00632         85.0042         26.2899 
        1.01246         84.2938          25.924 
        1.01859          83.191         25.5657 
        1.02471         83.3818         25.2147 
        1.03085         82.4754         24.8692 
        1.03698         81.9372         24.5308 
        1.04314         81.1483         24.1974 
        1.04929          80.702          23.871 
        1.05541         80.0197          23.552 
        1.06154         79.7806         23.2381 
        1.06769         79.2688         22.9294 
        1.07382         78.9095         22.6274 
        1.07993         78.3658         22.3315 
        1.08607         77.6865         22.0398 
        1.09222          77.302         21.7529 
        1.09836         76.7229         21.4716 
        1.10449         76.2686         21.1956 
        1.11063         75.7045         20.9241 
        1.11677          75.286         20.6575 
         1.1229         74.6136         20.3961 
        1.12903         73.8148          20.139 
        1.13518         74.0881         19.8861 
        1.14131         73.5186         19.6378 
        1.14745         72.6665         19.3938 
        1.15359         72.4479          19.154 
        1.15973         71.9502         18.9181 
        1.16584         71.4602         18.6873 
        1.17197         71.0414         18.4601 
        1.17811         70.6751         18.2359 
        1.18424         70.0588         18.0161 
        1.19038         69.6717         17.7994 
        1.19652         69.4257         17.5863 
        1.20267         68.8207         17.3767 
        1.20881         68.5033         17.1706 
        1.21495          67.946         16.9681 
        1.22108         67.6121          16.769 
         1.2272          67.018         16.5736 
        1.23334         66.7683         16.3808 
        1.23949          66.505         16.1907 
        1.24562         66.0867         16.0041 
        1.25174         65.7464         15.8207 
        1.25789         65.4204         15.6397 
        1.26402         64.9762         15.4619 
        1.27014          64.346         15.2873 
        1.27628         64.1982         15.1148 
        1.28244         63.6709         14.9447 
        1.28858         63.4156         14.7775 
        1.29471         63.1771         14.6132 
        1.30084         62.7615         14.4516 
        1.30697         62.3397         14.2922 
        1.31312         61.9544          14.135 
        1.31925         61.7979         13.9806 
        1.32537         61.4685         13.8287 
        1.33151         60.8637         13.6786 
        1.33765         60.6604         13.5308 
        1.34378         60.2845         13.3854 
        1.34992         59.9536         13.2421 
        1.35606          59.628         13.1006 
         1.3622         59.1832         12.9614 
        1.36833         59.0022         12.8246 
        1.37445         58.7384         12.6898 
        1.38059         58.2783         12.5565 
        1.38675         57.9749         12.4249 
        1.39288         57.6643         12.2957 
        1.39901         57.4818         12.1684 
        1.40515         57.1403         12.0426 
         1.4113         56.8768         11.9186 
        1.41742         56.6182         11.7969 
        1.42355         56.1798         11.6766 
         1.4297         55.9428         11.5577 
        1.43585         55.6172         11.4404 
        1.44198         55.3717         11.3253 
        1.44809          55.123          11.212 
        1.45423         54.8674         11.0998 
        1.46036         54.6002         10.9893 
        1.46649         54.2683         10.8803 
        1.47263         53.9259         10.7727 
        1.47877         53.7771         10.6667 
        1.48491         53.6037         10.5618 
        1.49104         53.1535         10.4587 
        1.49718         52.7161         10.3568 
        1.50333         52.6139         10.2561 
        1.50947         52.3659          10.157 
         1.5156         52.0544         10.0593 
        1.52172         51.8764         9.96293 
        1.52787          51.743         9.86762 
          1.534         51.3879         9.77367 
        1.54013         51.0916         9.68105 
        1.54627         50.9088         9.58947 
        1.55241         50.5493         9.49905 
        1.55855         50.2764         9.40994 
        1.56467          49.888         9.32222 
         1.5708         49.9224         9.23537 
        1.57695         49.6266          9.1495 
        1.58308         49.3487         9.06493 
        1.58922         49.3184         8.98137 
        1.59535         49.0356          8.8989 
         1.6015         48.5877         8.81735 
        1.60764         48.4465         8.73687 
        1.61376         48.2081         8.65761 
        1.61989         47.8586         8.57929 
        1.62604         47.7838         8.50175 
        1.63218         47.6222         8.42523 
        1.63831          47.339         8.34983 
        1.64444         47.0868         8.27533 
        1.65059         46.7436         8.20156 
        1.65673         46.5778         8.12878 
        1.66285         46.3535         8.05708 
        1.66898         46.1143         7.98623 
        1.67512         45.8842         7.91609 
        1.68127         45.6193         7.84673 
         1.6874         45.5318         7.77837 
        1.69353         45.2255         7.71085 
        1.69967          45.028         7.64398 
        1.70581         44.9694         7.57794 
        1.71193         44.6934         7.51292 
        1.71806          44.324         7.44853 
        1.72421         44.2082         7.38477 
        1.73035         43.9622         7.32183 
        1.73649         43.6428         7.25963 
        1.74262         43.6095         7.19821 
        1.74876         43.4792         7.13747 
        1.75489         43.1747         7.07755 
        1.76101         43.0082         7.01834 
        1.76715         42.7802         6.95972 
        1.77329         42.5766         6.90171 
        1.77943         42.4225         6.84433 
        1.78557         42.2395          6.7877 
        1.79171         41.9685         6.73169 
        1.79785         41.7852         6.67631 
        1.80399         41.6655         6.62157 
        1.81012         41.4836         6.56751 
        1.81625          41.129         6.51409 
        1.82239         41.0412         6.46118 
        1.82853          40.727         6.40889 
        1.83466         40.6713         6.35722 
        1.84078         40.3375         6.30619 
        1.84692          40.226         6.25563 
        1.85306         40.0346         6.20556 
         1.8592         39.8312         6.15613 
        1.86533         39.6721         6.10726 
        1.87147         39.5433         6.05887 
        1.87761         39.4018         6.01098 
        1.88375         39.1657         5.96366 
        1.88988         39.1194         5.91691 
        1.89601         38.8262         5.87063 
        1.90215         38.6836         5.82481 
        1.90829         38.5949          5.7795 
        1.91442         38.3446         5.73467 
        1.92056         38.2024         5.69036 
         1.9267         37.9071         5.64647 
        1.93284          37.758         5.60302 
        1.93897         37.6705         5.56011 
        1.94509         37.4216         5.51774 
        1.95123         37.3385          5.4757 
        1.95737         37.0925         5.43407 
        1.96349         36.9481         5.39299 
        1.96964         36.7993         5.35221 
        1.97578         36.6471         5.31184 
        1.98192         36.4549         5.27196 
        1.98805         36.3254         5.23249 
        1.99419         36.0762         5.19342 
        2.00033         35.9467         5.15474 
        2.00647          35.802         5.11646 
         2.0126         35.6434         5.07863 
        2.01874         35.5186         5.04113 
        2.02488         35.4147         5.00398 
        2.03101         35.1628         4.96727 
        2.03714         35.0215         4.93097 
        2.04328          34.842         4.89499 
        2.04941         34.7139         4.85939 
        2.05554         34.5121         4.82418 
        2.06167         34.4404         4.78927 
        2.06781         34.2505          4.7547 
        2.07396         34.0927         4.72042 
        2.08009         33.9869         4.68655 
        2.08622         33.7937         4.65304 
        2.09237         33.6315         4.61979 
        2.09851         33.4637         4.58687 
        2.10464         33.3964         4.55432 
        2.11077         33.2092         4.52213 
        2.11691         33.0793         4.49017 
        2.12305         32.9156         4.45853 
        2.12918         32.8668         4.42726 
        2.13531         32.6472          4.3963 
        2.14145          32.586         4.36555 
         2.1476         32.3526         4.33507 
        2.15372         32.1895         4.30503 
        2.15985         32.0882         4.27524 
        2.16599         32.0495         4.24565 
        2.17213         31.9224         4.21638 
        2.17827         31.6369         4.18738 
         2.1844         31.5263         4.15869 
        2.19054          31.383         4.13025 
        2.19666          31.278         4.10212 
         2.2028         31.1501         4.07423 
        2.20893         31.0541         4.04659 
        2.21508         30.9045         4.01917 
        2.22122         30.7019         3.99199 
        2.22736         30.6389         3.96513 
        2.23349         30.5055         3.93852 
        2.23962         30.3373         3.91214 
        2.24577         30.1917         3.88597 
         2.2519         30.1004         3.86009 
        2.25802         29.9627         3.83448 
        2.26417         29.8642         3.80904 
        2.27031         29.7703          3.7838 
        2.27644         29.5566         3.75886 
        2.28257         29.4637         3.73415 
        2.28872         29.3201         3.70962 
        2.29486         29.2661         3.68531 
        2.30099          29.123         3.66127 
        2.30712         29.0111         3.63744 
        2.31326         28.9298         3.61378 
         2.3194         28.7777         3.59034 
        2.32553         28.6069         3.56715 
        2.33166          28.488         3.54417 
         2.3378         28.3744         3.52137 
        2.34394         28.2201         3.49876 
        2.35007         28.1188         3.47638 
        2.35619         28.0668         3.45422 
        2.36233         27.9751         3.43221 
        2.36848         27.7602         3.41034 
        2.37462         27.6879          3.3887 
        2.38075         27.5727         3.36728 
        2.38689         27.5043         3.34602 
        2.39303         27.3317         3.32495 
        2.39916         27.1826         3.30409 
        2.40529         27.0546          3.2834 
        2.41143         26.9845         3.26288 
        2.41757           26.89         3.24252 
         2.4237         26.7454         3.22238 
        2.42983          26.655          3.2024 
        2.43598         26.5374         3.18255 
        2.44211         26.4228         3.16289 
        2.44823         26.2778         3.14345 
        2.45437         26.2236         3.12411 
        2.46052         26.0936         3.10492 
        2.46665         26.0253         3.08593 
        2.47279         25.9013          3.0671 
        2.47892         25.7624         3.04842 
        2.48507         25.6703         3.02988 
         2.4912         25.5979         3.01152 
