# k  (h/Mpc)    P(k)  (Mpc/h)^3    P_linear(k)  (Mpc/h)^3
     0.00783031         1895.18         1924.61 
       0.013688         2355.88         2366.38 
       0.019231         2377.08         2384.36 
      0.0249154         2170.61          2192.1 
      0.0312784          1879.1         1886.64 
      0.0375637         1600.45         1599.72 
      0.0433917         1384.15         1390.77 
      0.0492413         1240.21         1241.71 
      0.0555754         1122.95         1132.81 
      0.0619321         1055.86         1052.69 
       0.067871         975.656         982.876 
      0.0738098         898.627         905.723 
      0.0800417         805.681          814.78 
      0.0862327         716.939         721.029 
      0.0921407         637.089         637.833 
      0.0982031         564.256         566.543 
       0.104506         514.945         511.036 
       0.110769         476.172         473.154 
       0.116806         447.787         448.145 
       0.122832         430.078         428.464 
       0.129052         406.238         408.057 
       0.135211         382.658         384.286 
       0.141259         358.174         356.985 
       0.147318         330.801         327.576 
       0.153489         300.704         298.534 
       0.159709          276.57         273.015 
       0.165845         259.367         253.047 
       0.171974         242.265         238.289 
       0.178125         231.891         227.514 
       0.184229         223.765         219.029 
        0.19034         212.421         210.937 
       0.196428         205.713         201.995 
       0.202534         197.353         191.671 
       0.208729          184.96         180.149 
       0.214876         172.598         168.535 
       0.220989         164.048         157.753 
       0.227147         153.215         148.374 
        0.23329         145.857         140.763 
       0.239377         140.712         134.771 
       0.245482         133.795         129.848 
       0.251667         130.971         125.381 
       0.257832         126.379         120.924 
       0.263955         121.535         116.189 
       0.270079         116.573         111.106 
        0.27624         112.652         105.808 
       0.282372         107.572         100.643 
        0.28843         102.429         95.9068 
       0.294538         98.0845          91.678 
       0.300721         95.4786         87.9947 
        0.30691         91.3023         84.8207 
       0.313033         88.5917         82.0249 
       0.319153         84.6763           79.39 
       0.325316         83.3167         76.7534 
        0.33145         80.1728         74.0723 
       0.337538         77.9491         71.3581 
       0.343633         74.9934         68.6481 
       0.349808         72.5938         65.9936 
       0.355968         70.3308          63.518 
       0.362074          67.961         61.2717 
       0.368217         65.9271         59.2298 
       0.374374         63.8909         57.3639 
       0.380519         62.3124         55.6304 
       0.386598         60.6446         53.9903 
       0.392688         59.3293         52.3764 
        0.39888         57.5491         50.7495 
       0.405048         56.0962         49.1448 
       0.411186         54.6769         47.5794 
       0.417313         52.8444         46.0753 
       0.423458         51.4636         44.6456 
       0.429607         50.0439         43.3012 
       0.435692         48.4782         42.0585 
       0.441815          47.663         40.8832 
       0.447964          46.832         39.7602 
       0.454126         44.9785         38.6767 
       0.460267         44.1983         37.6279 
       0.466387         42.9106         36.6051 
        0.47254         42.2203         35.5988 
       0.478662         41.4486         34.6265 
       0.484765         40.1982          33.692 
       0.490885          39.276         32.7931 
       0.497035         38.7491         31.9299 
       0.503198         37.7106         31.1064 
       0.509342         36.7435         30.3227 
       0.515458         35.9873         29.5731 
       0.521598         35.3693         28.8451 
       0.527764         34.6144         28.1354 
       0.533884         34.0181         27.4513 
           0.54         33.2715         26.7873 
       0.546137         32.7281           26.14 
       0.552299         32.1821         25.5104 
       0.558452         31.1873         24.9034 
       0.564573         30.7355         24.3218 
       0.570708         30.2278         23.7609 
       0.576825         29.4829         23.2216 
       0.582926         28.9309         22.7015 
       0.589034         28.1824         22.1964 
       0.595184         27.8162         21.7023 
       0.601379         27.2887         21.2191 
       0.607522         26.8001          20.754 
       0.613639         26.5252         20.3045 
       0.619772         25.8283         19.8673 
       0.625918         25.6826         19.4424 
       0.632068         25.2542         19.0299 
       0.638161         24.7087         18.6333 
         0.6443         24.2177         18.2456 
       0.650464         23.7863          17.868 
       0.656582          23.628         17.5041 
       0.662703         23.1766         17.1504 
       0.668861         22.7464         16.8047 
       0.675024          22.341         16.4682 
       0.681124         21.9563         16.1444 
       0.687237         21.5992         15.8285 
       0.693381         21.3947         15.5196 
       0.699536         20.8355         15.2183 
       0.705665         20.7413         14.9264 
       0.711789         20.3072         14.6424 
       0.717957         20.0234          14.364 
        0.72409         19.7176         14.0945 
       0.730186         19.4464         13.8337 
       0.736317         19.2358         13.5782 
       0.742472         18.9085         13.3283 
       0.748622         18.6929          13.085 
        0.75476         18.3448         12.8484 
       0.760888         18.0982          12.618 
       0.767043         17.8833         12.3924 
       0.773185         17.5494         12.1729 
       0.779291         17.4502         11.9599 
       0.785407         17.2183         11.7518 
       0.791564         16.9174         11.5473 
       0.797719         16.5654         11.3479 
       0.803834         16.5258         11.1545 
       0.809972         16.3732         10.9649 
       0.816124         15.9973         10.7793 
       0.822261         15.8311         10.5986 
       0.828378         15.6538         10.4226 
       0.834502         15.5118         10.2505 
       0.840667         15.2814         10.0812 
       0.846816         15.0114         9.91624 
       0.852925         14.8728         9.75603 
       0.859047         14.7047         9.59905 
       0.865192         14.5704         9.44504 
       0.871341         14.4412         9.29434 
       0.877463         14.1843         9.14763 
       0.883569         13.9975         9.00449 
       0.889708         13.7827          8.8637 
       0.895864         13.6817         8.72559 
       0.902008         13.5694         8.59072 
       0.908149         13.4183         8.45881 
       0.914301         13.2964         8.32948 
       0.920448         13.0572           8.203 
       0.926574         12.9335          8.0796 
       0.932687         12.8013         7.95902 
       0.938823         12.6298         7.84049 
       0.944975         12.4812         7.72412 
       0.951105         12.3718         7.61055 
       0.957225         12.2768         7.49947 
       0.963368         12.1428         7.39025 
       0.969511         12.0265         7.28322 
       0.975621         11.9002         7.17889 
       0.981748         11.7556         7.07635 
       0.987916         11.6735         6.97518 
        0.99406         11.5012         6.87639 
        1.00019         11.3327         6.77971 
        1.00632         11.3142           6.685 
        1.01246         11.1872         6.59197 
        1.01859         11.0166         6.50087 
        1.02471         10.9591         6.41161 
        1.03085         10.8481         6.32374 
        1.03698         10.6877         6.23771 
        1.04314         10.6283         6.15293 
        1.04929         10.4894         6.06994 
        1.05541         10.3746         5.98882 
        1.06154          10.302         5.90899 
        1.06769          10.252          5.8305 
        1.07382         10.0997         5.75371 
        1.07993         10.0221         5.67847 
        1.08607         9.93546         5.60428 
        1.09222         9.85043         5.53135 
        1.09836         9.73668         5.45981 
        1.10449         9.65718         5.38962 
        1.11063         9.56117          5.3206 
        1.11677         9.51208         5.25281 
         1.1229         9.44209         5.18633 
        1.12903         9.32461         5.12095 
        1.13518         9.21508         5.05665 
        1.14131         9.15043          4.9935 
        1.14745         9.06619         4.93147 
        1.15359         9.00796         4.87048 
        1.15973         8.92654         4.81051 
        1.16584         8.79797         4.75182 
        1.17197         8.74667         4.69403 
        1.17811         8.70525         4.63704 
        1.18424         8.62444         4.58115 
        1.19038         8.58508         4.52604 
        1.19652         8.48583         4.47185 
        1.20267         8.39769         4.41856 
        1.20881         8.37528         4.36615 
        1.21495         8.30106         4.31467 
        1.22108         8.20227         4.26404 
         1.2272         8.15208         4.21434 
        1.23334         8.06292         4.16532 
        1.23949         7.99575         4.11697 
        1.24562         7.96077         4.06953 
        1.25174         7.89498         4.02291 
        1.25789         7.83668         3.97688 
        1.26402         7.79453         3.93166 
        1.27014         7.72549         3.88726 
        1.27628         7.63458         3.84341 
        1.28244         7.56638         3.80016 
        1.28858         7.56129         3.75764 
        1.29471         7.47344         3.71586 
        1.30084         7.40148         3.67477 
        1.30697         7.39884         3.63423 
        1.31312         7.27833         3.59425 
        1.31925         7.23528           3.555 
        1.32537         7.18907         3.51638 
        1.33151         7.15968          3.4782 
        1.33765         7.08304         3.44061 
        1.34378         7.03152         3.40365 
        1.34992          6.9873         3.36721 
        1.35606         6.93102         3.33122 
         1.3622         6.89383         3.29583 
        1.36833         6.83506         3.26104 
        1.37445         6.79388         3.22677 
        1.38059         6.76943         3.19289 
        1.38675          6.7079         3.15941 
        1.39288         6.67128         3.12655 
        1.39901         6.59437         3.09418 
        1.40515         6.56501         3.06219 
         1.4113         6.52236         3.03067 
        1.41742         6.47743         2.99971 
        1.42355         6.41841         2.96913 
         1.4297         6.38238         2.93889 
        1.43585         6.35594         2.90908 
        1.44198         6.32728          2.8798 
        1.44809         6.26668         2.85098 
        1.45423         6.21851         2.82245 
        1.46036         6.17462         2.79437 
        1.46649         6.13919         2.76666 
        1.47263         6.08673          2.7393 
        1.47877         6.05028         2.71232 
        1.48491          6.0165         2.68567 
        1.49104          5.9788         2.65944 
        1.49718         5.94569         2.63353 
        1.50333          5.9114         2.60793 
        1.50947          5.8634         2.58273 
         1.5156         5.83178         2.55789 
        1.52172             5.8         2.53338 
        1.52787         5.76415         2.50915 
          1.534         5.71754         2.48526 
        1.54013         5.69551         2.46171 
        1.54627         5.64306         2.43842 
        1.55241         5.61388         2.41543 
        1.55855         5.59201         2.39277 
        1.56467         5.54855         2.37046 
         1.5708         5.52529         2.34838 
        1.57695         5.47469         2.32654 
        1.58308         5.43756         2.30504 
        1.58922          5.4252         2.28379 
        1.59535         5.39705         2.26282 
         1.6015         5.35078         2.24208 
        1.60764         5.31428         2.22162 
        1.61376         5.29388         2.20147 
        1.61989         5.26467         2.18155 
        1.62604         5.22556         2.16183 
        1.63218         5.21485         2.14238 
        1.63831         5.17896          2.1232 
        1.64444          5.1516         2.10426 
        1.65059         5.09512          2.0855 
        1.65673         5.09575         2.06699 
        1.66285         5.04383         2.04876 
        1.66898         5.02175         2.03074 
        1.67512         4.99541         2.01291 
        1.68127          4.9656         1.99527 
         1.6874         4.94955         1.97789 
        1.69353         4.90607         1.96072 
        1.69967          4.8874         1.94372 
        1.70581         4.86238         1.92692 
        1.71193         4.83254         1.91039 
        1.71806         4.81465         1.89402 
        1.72421         4.78006         1.87781 
        1.73035         4.76555          1.8618 
        1.73649          4.7354         1.84599 
        1.74262         4.70345         1.83037 
        1.74876         4.68869         1.81492 
        1.75489         4.66601         1.79969 
        1.76101         4.62655         1.78463 
        1.76715         4.61433         1.76972 
        1.77329          4.5904         1.75497 
        1.77943         4.54872         1.74038 
        1.78557         4.54198         1.72598 
        1.79171         4.51359         1.71174 
        1.79785         4.48943         1.69766 
        1.80399         4.46245         1.68374 
        1.81012         4.44449         1.66999 
        1.81625         4.42107         1.65641 
        1.82239         4.40147         1.64296 
        1.82853         4.37454         1.62966 
        1.83466         4.35976         1.61652 
        1.84078          4.3385         1.60354 
        1.84692         4.32637         1.59069 
        1.85306          4.2878         1.57796 
         1.8592         4.26317         1.56539 
        1.86533         4.24693         1.55296 
        1.87147         4.23131         1.54065 
        1.87761         4.20556         1.52848 
        1.88375         4.18529         1.51645 
        1.88988         4.16284         1.50456 
        1.89601          4.1457         1.49279 
        1.90215         4.12788         1.48114 
        1.90829         4.10121         1.46962 
        1.91442         4.08686         1.45822 
        1.92056         4.06438         1.44695 
         1.9267         4.04263         1.43579 
        1.93284         4.02785         1.42474 
        1.93897         4.00733         1.41383 
        1.94509         3.98745         1.40306 
        1.95123         3.96715         1.39237 
        1.95737         3.94259         1.38178 
        1.96349         3.93358         1.37133 
        1.96964          3.9191         1.36097 
        1.97578         3.88856          1.3507 
        1.98192         3.88021         1.34056 
        1.98805         3.86355         1.33052 
        1.99419         3.84355         1.32059 
        2.00033         3.83155         1.31075 
        2.00647         3.80819         1.30102 
         2.0126         3.79704          1.2914 
        2.01874         3.76817         1.28187 
        2.02488         3.76166         1.27242 
        2.03101         3.73143         1.26308 
        2.03714         3.71972         1.25385 
        2.04328         3.70257          1.2447 
        2.04941         3.67947         1.23565 
        2.05554         3.66954          1.2267 
        2.06167         3.65837         1.21782 
        2.06781         3.63837         1.20903 
        2.07396         3.62885         1.20032 
        2.08009         3.61002          1.1917 
        2.08622           3.589         1.18318 
        2.09237         3.57666         1.17473 
        2.09851         3.56314         1.16635 
        2.10464         3.54847         1.15808 
        2.11077         3.52771         1.14989 
        2.11691         3.51448         1.14177 
        2.12305         3.50338         1.13372 
        2.12918         3.49352         1.12577 
        2.13531         3.47609          1.1179 
        2.14145         3.46057         1.11008 
         2.1476         3.43978         1.10233 
        2.15372         3.42641         1.09469 
        2.15985          3.4212         1.08711 
        2.16599         3.39869         1.07959 
        2.17213         3.38311         1.07215 
        2.17827         3.37499         1.06477 
         2.1844         3.35704         1.05748 
        2.19054         3.34671         1.05025 
        2.19666          3.3285         1.04309 
         2.2028         3.31414           1.036 
        2.20893         3.30401         1.02897 
        2.21508         3.28609           1.022 
        2.22122         3.27345         1.01509 
        2.22736         3.26196         1.00826 
        2.23349         3.25377         1.00149 
        2.23962         3.23644        0.994783 
        2.24577         3.22374        0.988131 
         2.2519          3.2148        0.981548 
        2.25802         3.19932        0.975037 
        2.26417           3.189        0.968566 
        2.27031         3.17222        0.962149 
        2.27644         3.15991        0.955808 
        2.28257         3.14485        0.949525 
        2.28872         3.14013        0.943287 
        2.29486         3.12204        0.937106 
        2.30099         3.10849        0.930993 
        2.30712         3.09633        0.924933 
        2.31326         3.08304        0.918916 
         2.3194         3.07483        0.912956 
        2.32553         3.06192        0.907059 
        2.33166         3.05441        0.901217 
         2.3378         3.04015        0.895418 
        2.34394         3.02875        0.889669 
        2.35007         3.01477        0.883978 
        2.35619         3.00777        0.878344 
        2.36233         2.99663        0.872746 
        2.36848         2.97929        0.867185 
        2.37462         2.97531        0.861684 
        2.38075         2.96005        0.856237 
        2.38689         2.95301        0.850832 
        2.39303         2.93939        0.845474 
        2.39916           2.928        0.840168 
        2.40529         2.91783        0.834908 
        2.41143         2.90645         0.82969 
        2.41757         2.89643        0.824513 
         2.4237         2.88838         0.81939 
        2.42983         2.86437        0.814312 
        2.43598         2.86609        0.809262 
        2.44211         2.84854        0.804265 
        2.44823         2.84404         0.79932 
        2.45437         2.82871        0.794404 
        2.46052          2.8243        0.789524 
        2.46665         2.81385        0.784695 
        2.47279         2.80173        0.779907 
        2.47892         2.79331        0.775157 
        2.48507         2.78264        0.770441 
         2.4912         2.76644        0.765774 
