# k  (h/Mpc)    P(k)  (Mpc/h)^3    P_linear(k)  (Mpc/h)^3
     0.00783031         3002.59         3048.24 
       0.013688         3739.09         3747.15 
       0.019231         3768.46         3775.27 
      0.0249154         3433.67         3470.65 
      0.0312784         2974.58         2986.92 
      0.0375637         2535.64          2532.6 
      0.0433917         2189.31         2201.77 
      0.0492413         1963.49         1965.76 
      0.0555754         1774.13         1793.34 
      0.0619321         1673.29         1666.49 
       0.067871         1542.08         1555.97 
      0.0738098         1420.29         1433.82 
      0.0800417         1272.13         1289.85 
      0.0862327         1133.52         1141.43 
      0.0921407         1009.16         1009.73 
      0.0982031         893.281         896.866 
       0.104506          817.91         808.995 
       0.110769         756.204         749.024 
       0.116806         710.563         709.433 
       0.122832         682.722         678.277 
       0.129052         643.396         645.971 
       0.135211          606.44          608.34 
       0.141259         568.903         565.121 
       0.147318         526.198         518.564 
       0.153489         478.211         472.591 
       0.159709         441.183         432.193 
       0.165845         414.865         400.583 
       0.171974         387.594          377.22 
       0.178125          371.03         360.163 
       0.184229         358.038         346.731 
        0.19034          338.62         333.921 
       0.196428         329.093         319.764 
       0.202534         316.308         303.421 
       0.208729         296.726         285.181 
       0.214876         277.153         266.795 
       0.220989         264.295         249.729 
       0.227147         247.146         234.881 
        0.23329         235.637         222.832 
       0.239377         228.022         213.347 
       0.245482         215.718         205.552 
       0.251667         211.891         198.482 
       0.257832         204.707         191.426 
       0.263955         196.875         183.931 
       0.270079         188.985         175.884 
        0.27624         183.456         167.498 
       0.282372         175.384          159.32 
        0.28843         167.434         151.823 
       0.294538         160.263         145.129 
       0.300721         156.739         139.298 
        0.30691          149.72         134.274 
       0.313033          145.54         129.848 
       0.319153          139.13         125.677 
       0.325316         136.714         121.503 
        0.33145         131.613         117.258 
       0.337538         128.585         112.962 
       0.343633         123.864         108.672 
       0.349808         119.905          104.47 
       0.355968         116.647         100.551 
       0.362074         112.881         96.9947 
       0.368217           109.6         93.7623 
       0.374374          106.37         90.8085 
       0.380519         103.847         88.0644 
       0.386598         101.066          85.468 
       0.392688         99.0895         82.9132 
        0.39888         96.2846         80.3378 
       0.405048         93.9326         77.7976 
       0.411186         91.7012         75.3195 
       0.417313         88.8951         72.9383 
       0.423458          86.711         70.6752 
       0.429607         84.4449          68.547 
       0.435692          81.682         66.5798 
       0.441815         80.7123         64.7192 
       0.447964         79.3387         62.9414 
       0.454126         75.9665         61.2262 
       0.460267         74.8811          59.566 
       0.466387         73.0443         57.9469 
        0.47254         71.8478         56.3538 
       0.478662            70.7         54.8146 
       0.484765         68.6321         53.3353 
       0.490885          67.203         51.9124 
       0.497035         66.3215         50.5459 
       0.503198         64.5217         49.2422 
       0.509342         62.9313         48.0016 
       0.515458         61.8299          46.815 
       0.521598         60.8939         45.6626 
       0.527764         59.7516         44.5391 
       0.533884         58.7439         43.4561 
           0.54         57.5081         42.4049 
       0.546137         56.7502         41.3803 
       0.552299          55.878         40.3837 
       0.558452         54.2491         39.4228 
       0.564573         53.3526          38.502 
       0.570708         52.6455         37.6141 
       0.576825         51.5412         36.7604 
       0.582926         50.5174          35.937 
       0.589034         49.3447         35.1375 
       0.595184         48.7463         34.3553 
       0.601379         47.9924         33.5904 
       0.607522          46.933         32.8541 
       0.613639         46.6613         32.1425 
       0.619772         45.4826         31.4505 
       0.625918          45.216         30.7777 
       0.632068         44.5215         30.1248 
       0.638161         43.7258         29.4971 
         0.6443         42.9488         28.8833 
       0.650464         42.2652         28.2855 
       0.656582         41.9447         27.7094 
       0.662703         41.1087         27.1495 
       0.668861         40.4797         26.6022 
       0.675024         39.8525         26.0697 
       0.681124         39.1671          25.557 
       0.687237         38.5144         25.0569 
       0.693381         38.2274         24.5678 
       0.699536         37.3545         24.0909 
       0.705665          37.412         23.6288 
       0.711789         36.4761         23.1793 
       0.717957         36.0667         22.7386 
        0.72409         35.5701          22.312 
       0.730186         35.0336         21.8991 
       0.736317         34.7583         21.4946 
       0.742472         34.1479          21.099 
       0.748622         33.8625         20.7139 
        0.75476         33.3458         20.3393 
       0.760888         32.8431         19.9746 
       0.767043         32.4859         19.6175 
       0.773185         31.9739         19.2699 
       0.779291         31.8354         18.9328 
       0.785407         31.4838         18.6034 
       0.791564         30.9243         18.2797 
       0.797719          30.298          17.964 
       0.803834          30.267         17.6578 
       0.809972         29.9262         17.3577 
       0.816124         29.3031          17.064 
       0.822261         29.1025         16.7779 
       0.828378         28.8542         16.4993 
       0.834502         28.5343         16.2268 
       0.840667         28.2087         15.9588 
       0.846816          27.746         15.6977 
       0.852925         27.5045          15.444 
       0.859047         27.1861         15.1955 
       0.865192         26.9369         14.9517 
       0.871341         26.7863         14.7132 
       0.877463         26.2616         14.4809 
       0.883569         26.0063         14.2543 
       0.889708         25.7167         14.0315 
       0.895864         25.5034         13.8128 
       0.902008         25.3033         13.5993 
       0.908149         25.0381         13.3905 
       0.914301         24.9385         13.1858 
       0.920448         24.4491         12.9855 
       0.926574         24.2815         12.7902 
       0.932687         24.0235         12.5993 
       0.938823         23.7059         12.4117 
       0.944975         23.5238         12.2275 
       0.951105         23.3189         12.0477 
       0.957225          23.057         11.8719 
       0.963368         22.9269          11.699 
       0.969511         22.7191         11.5295 
       0.975621         22.5363         11.3644 
       0.981748         22.2159          11.202 
       0.987916         22.1063         11.0419 
        0.99406         21.8483         10.8855 
        1.00019         21.5805         10.7325 
        1.00632         21.4886         10.5825 
        1.01246         21.3214         10.4352 
        1.01859         21.0003          10.291 
        1.02471         20.9557         10.1497 
        1.03085         20.7545         10.0106 
        1.03698         20.4286         9.87445 
        1.04314         20.3158         9.74024 
        1.04929         20.1018         9.60886 
        1.05541         19.9011         9.48044 
        1.06154         19.7992         9.35407 
        1.06769         19.6793         9.22982 
        1.07382         19.4522         9.10826 
        1.07993         19.3601         8.98916 
        1.08607         19.1162         8.87172 
        1.09222         19.0186         8.75626 
        1.09836         18.7882         8.64301 
        1.10449         18.6868          8.5319 
        1.11063         18.4709         8.42263 
        1.11677         18.4121         8.31533 
         1.1229         18.3123         8.21009 
        1.12903         18.0682         8.10659 
        1.13518         17.8856          8.0048 
        1.14131         17.8406         7.90483 
        1.14745         17.6956         7.80663 
        1.15359         17.5915         7.71009 
        1.15973         17.4111         7.61515 
        1.16584         17.1915         7.52225 
        1.17197         17.1837         7.43077 
        1.17811         16.9945         7.34054 
        1.18424         16.8547         7.25208 
        1.19038         16.7989         7.16483 
        1.19652         16.6541         7.07905 
        1.20267         16.5153         6.99468 
        1.20881         16.4337         6.91171 
        1.21495         16.3228         6.83023 
        1.22108         16.1639         6.75007 
         1.2272          16.022          6.6714 
        1.23334         15.9293         6.59381 
        1.23949         15.7806         6.51727 
        1.24562         15.7365         6.44216 
        1.25174         15.6346         6.36836 
        1.25789         15.5142          6.2955 
        1.26402         15.4499         6.22392 
        1.27014         15.2962         6.15362 
        1.27628         15.1307         6.08421 
        1.28244         15.0826         6.01575 
        1.28858         15.0403         5.94843 
        1.29471         14.8862          5.8823 
        1.30084         14.7594         5.81724 
        1.30697         14.6904         5.75307 
        1.31312         14.5413         5.68979 
        1.31925         14.4484         5.62766 
        1.32537         14.4089         5.56652 
        1.33151         14.2879         5.50608 
        1.33765         14.2115         5.44657 
        1.34378         14.1257         5.38806 
        1.34992         13.9735         5.33037 
        1.35606           13.95         5.27341 
         1.3622         13.8603         5.21738 
        1.36833         13.7376          5.1623 
        1.37445          13.694         5.10805 
        1.38059          13.605         5.05442 
        1.38675         13.4622         5.00143 
        1.39288         13.4311         4.94941 
        1.39901         13.3133         4.89816 
        1.40515         13.2579         4.84752 
         1.4113         13.1671         4.79762 
        1.41742          13.076         4.74862 
        1.42355          13.007         4.70021 
         1.4297         12.9458         4.65233 
        1.43585         12.8966         4.60515 
        1.44198         12.7884          4.5588 
        1.44809         12.7209         4.51318 
        1.45423         12.6379         4.46801 
        1.46036          12.573         4.42355 
        1.46649         12.5168         4.37968 
        1.47263         12.4035         4.33638 
        1.47877         12.3437         4.29367 
        1.48491         12.2911         4.25148 
        1.49104         12.2289         4.20995 
        1.49718          12.144         4.16894 
        1.50333         12.0918         4.12842 
        1.50947         12.0195         4.08852 
         1.5156         11.9316          4.0492 
        1.52172         11.8816          4.0104 
        1.52787         11.8083         3.97204 
          1.534         11.7317         3.93422 
        1.54013         11.6597         3.89694 
        1.54627         11.5905         3.86007 
        1.55241         11.5459         3.82368 
        1.55855         11.4879         3.78781 
        1.56467         11.4122          3.7525 
         1.5708         11.3999         3.71754 
        1.57695          11.295         3.68297 
        1.58308         11.2438         3.64893 
        1.58922         11.1948         3.61529 
        1.59535         11.1398          3.5821 
         1.6015         11.0572         3.54927 
        1.60764         10.9962         3.51687 
        1.61376         10.9758         3.48497 
        1.61989         10.8816         3.45344 
        1.62604         10.8622         3.42223 
        1.63218         10.7961         3.39143 
        1.63831         10.7531         3.36108 
        1.64444          10.669         3.33109 
        1.65059         10.6094          3.3014 
        1.65673         10.5963          3.2721 
        1.66285         10.4853         3.24324 
        1.66898         10.4691         3.21472 
        1.67512         10.4176         3.18648 
        1.68127         10.3581         3.15857 
         1.6874         10.3131         3.13105 
        1.69353         10.2474         3.10387 
        1.69967         10.2021         3.07695 
        1.70581         10.1598         3.05037 
        1.71193         10.0944          3.0242 
        1.71806         10.0739         2.99828 
        1.72421          9.9957         2.97261 
        1.73035          9.9708         2.94727 
        1.73649         9.92498         2.92224 
        1.74262         9.87909         2.89752 
        1.74876         9.84032         2.87306 
        1.75489         9.78801         2.84894 
        1.76101         9.71336         2.82511 
        1.76715         9.70943         2.80152 
        1.77329         9.63077         2.77816 
        1.77943         9.58547         2.75507 
        1.78557         9.56711         2.73227 
        1.79171         9.52734         2.70973 
        1.79785         9.45456         2.68743 
        1.80399         9.41804          2.6654 
        1.81012         9.38677         2.64364 
        1.81625         9.33064         2.62213 
        1.82239         9.29455         2.60084 
        1.82853          9.2335         2.57979 
        1.83466         9.20158         2.55899 
        1.84078         9.14264         2.53845 
        1.84692         9.13625          2.5181 
        1.85306         9.07945         2.49794 
         1.8592         9.03424         2.47804 
        1.86533         9.00567         2.45837 
        1.87147         8.96482         2.43889 
        1.87761         8.93258         2.41962 
        1.88375         8.86773         2.40057 
        1.88988         8.86399         2.38175 
        1.89601         8.81322         2.36312 
        1.90215         8.76495         2.34468 
        1.90829         8.72748         2.32644 
        1.91442         8.69061         2.30839 
        1.92056         8.66463         2.29056 
         1.9267         8.61993         2.27289 
        1.93284         8.57536          2.2554 
        1.93897         8.53078         2.23813 
        1.94509         8.50583         2.22107 
        1.95123         8.47187         2.20415 
        1.95737         8.43441         2.18739 
        1.96349          8.4015         2.17086 
        1.96964         8.35477         2.15444 
        1.97578         8.32326         2.13819 
        1.98192         8.28648         2.12214 
        1.98805         8.26244         2.10625 
        1.99419         8.22146         2.09052 
        2.00033         8.20234         2.07495 
        2.00647         8.16122         2.05954 
         2.0126         8.11749         2.04432 
        2.01874         8.09177         2.02922 
        2.02488         8.04784         2.01427 
        2.03101         8.02542         1.99949 
        2.03714         7.98395         1.98488 
        2.04328         7.96081         1.97039 
        2.04941         7.91552         1.95607 
        2.05554         7.89772         1.94189 
        2.06167         7.85186         1.92784 
        2.06781         7.84029         1.91392 
        2.07396         7.81101         1.90013 
        2.08009         7.77111         1.88649 
        2.08622          7.7261           1.873 
        2.09237         7.71868         1.85962 
        2.09851          7.6947         1.84637 
        2.10464         7.65064         1.83326 
        2.11077          7.6041         1.82031 
        2.11691         7.57664         1.80744 
        2.12305          7.5564          1.7947 
        2.12918          7.5379         1.78212 
        2.13531         7.49962         1.76965 
        2.14145         7.47599         1.75728 
         2.1476         7.43832         1.74501 
        2.15372         7.41524         1.73292 
        2.15985         7.40172         1.72093 
        2.16599         7.35955         1.70902 
        2.17213         7.34034         1.69723 
        2.17827         7.31346         1.68556 
         2.1844         7.27946         1.67401 
        2.19054         7.23251         1.66256 
        2.19666         7.22451         1.65124 
         2.2028         7.19537         1.64001 
        2.20893         7.17748         1.62889 
        2.21508         7.13707         1.61785 
        2.22122         7.10534         1.60691 
        2.22736         7.08894          1.5961 
        2.23349         7.05758         1.58538 
        2.23962         7.04346         1.57476 
        2.24577         7.00593         1.56423 
         2.2519         6.98944         1.55381 
        2.25802         6.95563         1.54351 
        2.26417         6.93116         1.53326 
        2.27031         6.90165          1.5231 
        2.27644         6.87849         1.51307 
        2.28257          6.8573         1.50312 
        2.28872         6.82927         1.49324 
        2.29486         6.80783         1.48346 
        2.30099         6.79406         1.47378 
        2.30712         6.76703         1.46419 
        2.31326         6.72352         1.45466 
         2.3194         6.70485         1.44523 
        2.32553         6.69416         1.43589 
        2.33166         6.66546         1.42665 
         2.3378         6.63881         1.41747 
        2.34394         6.61626         1.40837 
        2.35007         6.58483         1.39936 
        2.35619          6.5626         1.39044 
        2.36233         6.53977         1.38158 
        2.36848         6.52415         1.37277 
        2.37462         6.50218         1.36407 
        2.38075         6.47777         1.35544 
        2.38689         6.45503         1.34689 
        2.39303         6.42532          1.3384 
        2.39916         6.40802         1.33001 
        2.40529         6.38892         1.32168 
        2.41143          6.3605         1.31342 
        2.41757          6.3593         1.30522 
         2.4237         6.32638         1.29711 
        2.42983         6.30283         1.28907 
        2.43598         6.28853         1.28108 
        2.44211         6.26017         1.27317 
        2.44823         6.24538         1.26534 
        2.45437         6.22375         1.25756 
        2.46052         6.18932         1.24983 
        2.46665         6.17572         1.24219 
        2.47279         6.14892         1.23461 
        2.47892         6.12481         1.22709 
        2.48507         6.11067         1.21963 
         2.4912          6.0856         1.21224 
