# k  (h/Mpc)    Pcb(k)  (Mpc/h)^3    Pcb_linear(k)  (Mpc/h)^3
     0.00783031         7991.64         8092.11 
       0.013688         10007.3         9955.29 
       0.019231         10050.7         10034.8 
      0.0249154         9095.95         9227.94 
      0.0312784          7894.2          7943.4 
      0.0375637         6747.65          6736.1 
      0.0433917          5795.1         5856.75 
      0.0492413         5212.73         5229.35 
      0.0555754         4676.76         4770.95 
      0.0619321         4450.95         4433.68 
       0.067871          4067.4         4139.77 
      0.0738098         3747.01         3814.89 
      0.0800417         3345.88         3431.91 
      0.0862327         2994.31         3037.07 
      0.0921407         2684.61         2686.67 
      0.0982031         2375.27         2386.41 
       0.104506         2196.89         2152.63 
       0.110769          2030.5         1993.07 
       0.116806         1908.11         1887.74 
       0.122832         1830.81         1804.85 
       0.129052         1713.28         1718.89 
       0.135211         1618.92         1618.77 
       0.141259         1529.63         1503.77 
       0.147318         1421.78         1379.89 
       0.153489         1292.63         1257.56 
       0.159709         1205.26         1150.07 
       0.165845         1143.22         1065.95 
       0.171974         1072.87         1003.79 
       0.178125         1025.14         958.402 
       0.184229         987.757         922.663 
        0.19034         928.262         888.576 
       0.196428         909.218         850.906 
       0.202534         876.079         807.418 
       0.208729          826.52         758.884 
       0.214876         777.962         709.958 
       0.220989         747.288         664.544 
       0.227147         705.507         625.033 
        0.23329         675.373         592.968 
       0.239377         659.252         567.729 
       0.245482         617.061         546.989 
       0.251667         611.144         528.175 
       0.257832         589.909         509.399 
       0.263955         569.178         489.455 
       0.270079         547.358          468.04 
        0.27624         538.065         445.725 
       0.282372         515.099         423.965 
        0.28843         499.222         404.014 
       0.294538         475.305           386.2 
       0.300721         471.048         370.684 
        0.30691         449.355         357.314 
       0.313033         439.882         345.537 
       0.319153         424.727         334.436 
       0.325316         413.222          323.33 
        0.33145           400.3         312.037 
       0.337538         394.569         300.602 
       0.343633         381.258         289.186 
       0.349808         368.574         278.005 
       0.355968         363.688         267.575 
       0.362074         355.269         258.113 
       0.368217         345.573         249.511 
       0.374374         332.677         241.651 
       0.380519         328.579         234.348 
       0.386598         320.298         227.439 
       0.392688         316.946         220.641 
        0.39888         308.259         213.787 
       0.405048         301.226         207.028 
       0.411186         294.929         200.433 
       0.417313         289.247         194.097 
       0.423458         283.541         188.074 
       0.429607         277.359         182.411 
       0.435692           269.7         177.176 
       0.441815          267.63         172.225 
       0.447964         262.505         167.494 
       0.454126         252.603         162.929 
       0.460267         249.564         158.512 
       0.466387         246.532         154.203 
        0.47254         241.121         149.964 
       0.478662         239.818         145.868 
       0.484765         232.379         141.931 
       0.490885         229.257         138.144 
       0.497035         225.897         134.508 
       0.503198         220.478         131.039 
       0.509342         218.018         127.738 
       0.515458         215.043          124.58 
       0.521598         211.421         121.513 
       0.527764         208.221         118.524 
       0.533884         205.433         115.642 
           0.54         202.257         112.844 
       0.546137         200.984         110.118 
       0.552299         197.087         107.466 
       0.558452         194.445         104.908 
       0.564573         191.254         102.458 
       0.570708         187.845         100.095 
       0.576825         185.494         97.8237 
       0.582926          182.68         95.6326 
       0.589034         180.413         93.5047 
       0.595184         178.433         91.4235 
       0.601379         176.505         89.3879 
       0.607522         172.789         87.4284 
       0.613639         171.993         85.5349 
       0.619772         168.255         83.6933 
       0.625918         166.681         81.9031 
       0.632068         164.721         80.1655 
       0.638161         163.496         78.4951 
         0.6443         161.095         76.8619 
       0.650464         159.442         75.2709 
       0.656582         157.628         73.7378 
       0.662703         155.609          72.248 
       0.668861           153.3         70.7916 
       0.675024         151.564         69.3744 
       0.681124         150.671         68.0101 
       0.687237         148.052         66.6794 
       0.693381         146.047         65.3779 
       0.699536         144.989         64.1088 
       0.705665         144.936          62.879 
       0.711789         141.654         61.6828 
       0.717957         141.195           60.51 
        0.72409         139.182         59.3748 
       0.730186         137.035         58.2761 
       0.736317         136.306         57.1997 
       0.742472          135.36          56.147 
       0.748622         134.085          55.122 
        0.75476         132.865         54.1252 
       0.760888         130.989         53.1548 
       0.767043         130.248         52.2045 
       0.773185         128.848         51.2796 
       0.779291         127.068         50.3825 
       0.785407         126.368         49.5057 
       0.791564          125.19         48.6445 
       0.797719          123.31         47.8043 
       0.803834         122.768         46.9895 
       0.809972         121.228         46.1909 
       0.816124         120.928         45.4093 
       0.822261         119.595          44.648 
       0.828378         118.484         43.9066 
       0.834502         117.955         43.1815 
       0.840667         116.364         42.4683 
       0.846816         115.195         41.7733 
       0.852925         114.416         41.0984 
       0.859047         113.029         40.4371 
       0.865192         112.456         39.7883 
       0.871341         111.426         39.1535 
       0.877463         110.291         38.5355 
       0.883569         109.569         37.9325 
       0.889708         108.779         37.3394 
       0.895864         107.798         36.7575 
       0.902008         106.978         36.1894 
       0.908149         106.394         35.6337 
       0.914301         105.267         35.0889 
       0.920448         104.554         34.5561 
       0.926574         103.823         34.0363 
       0.932687         103.495         33.5283 
       0.938823         101.907          33.029 
       0.944975          101.08         32.5388 
       0.951105         100.513         32.0603 
       0.957225         99.3361         31.5924 
       0.963368         98.8118         31.1323 
       0.969511         98.4782         30.6814 
       0.975621         97.9881         30.2419 
       0.981748         97.1192           29.81 
       0.987916          96.169         29.3838 
        0.99406         95.5731         28.9676 
        1.00019         94.8412         28.5603 
        1.00632         94.2802         28.1613 
        1.01246         93.5422         27.7694 
        1.01859         92.3499         27.3857 
        1.02471         92.4586         27.0097 
        1.03085         91.4867         26.6395 
        1.03698         90.9287         26.2771 
        1.04314         90.0628         25.9199 
        1.04929         89.5594         25.5703 
        1.05541         88.8478         25.2286 
        1.06154         88.5128         24.8923 
        1.06769         88.0597         24.5617 
        1.07382         87.6169         24.2382 
        1.07993         86.9732         23.9212 
        1.08607         86.2524         23.6087 
        1.09222         85.8446         23.3015 
        1.09836         85.1792         23.0001 
        1.10449         84.6904         22.7044 
        1.11063         84.0998         22.4136 
        1.11677         83.6668         22.1281 
         1.1229          82.834          21.848 
        1.12903         82.0546         21.5726 
        1.13518         82.3214         21.3017 
        1.14131         81.6521         21.0357 
        1.14745         80.7871         20.7744 
        1.15359         80.4799         20.5175 
        1.15973           80.03         20.2648 
        1.16584         79.4382         20.0176 
        1.17197         78.9887         19.7742 
        1.17811         78.5364         19.5341 
        1.18424         77.9239         19.2986 
        1.19038         77.4759         19.0665 
        1.19652         77.1751         18.8382 
        1.20267         76.4987         18.6137 
        1.20881         76.1487         18.3929 
        1.21495         75.5649          18.176 
        1.22108         75.1957         17.9627 
         1.2272         74.5422         17.7534 
        1.23334         74.2729         17.5469 
        1.23949         73.8771         17.3432 
        1.24562         73.5006         17.1434 
        1.25174         73.0782          16.947 
        1.25789         72.7304         16.7531 
        1.26402          72.307         16.5626 
        1.27014         71.5969         16.3755 
        1.27628         71.4299         16.1908 
        1.28244         70.8365         16.0086 
        1.28858         70.5619         15.8295 
        1.29471         70.2534         15.6535 
        1.30084         69.7923         15.4804 
        1.30697         69.3571         15.3096 
        1.31312         68.9602         15.1412 
        1.31925         68.7277         14.9759 
        1.32537         68.3873         14.8132 
        1.33151         67.7033         14.6523 
        1.33765          67.427          14.494 
        1.34378         67.0207         14.3383 
        1.34992         66.7488         14.1848 
        1.35606         66.3741         14.0332 
         1.3622          65.828         13.8841 
        1.36833         65.6673         13.7375 
        1.37445         65.3137         13.5931 
        1.38059         64.7984         13.4504 
        1.38675         64.4809         13.3094 
        1.39288         64.1033          13.171 
        1.39901         63.9744         13.0346 
        1.40515         63.5722         12.8998 
         1.4113         63.2285          12.767 
        1.41742         63.0332         12.6366 
        1.42355         62.4846         12.5078 
         1.4297         62.2479         12.3804 
        1.43585         61.8193         12.2548 
        1.44198          61.584         12.1315 
        1.44809         61.2947         12.0101 
        1.45423         60.9929         11.8899 
        1.46036         60.7345         11.7716 
        1.46649         60.3654         11.6549 
        1.47263         59.9691         11.5396 
        1.47877         59.8027          11.426 
        1.48491         59.5792         11.3137 
        1.49104         59.1084         11.2032 
        1.49718         58.6577         11.0941 
        1.50333         58.5015         10.9862 
        1.50947         58.2079           10.88 
         1.5156         57.8983         10.7754 
        1.52172         57.6957         10.6722 
        1.52787         57.5258         10.5701 
          1.534         57.1346         10.4694 
        1.54013          56.797         10.3702 
        1.54627         56.5943         10.2721 
        1.55241         56.1902         10.1753 
        1.55855         55.8908         10.0798 
        1.56467         55.4866         9.98584 
         1.5708          55.493         9.89281 
        1.57695         55.2043         9.80082 
        1.58308         54.8279         9.71023 
        1.58922         54.7901         9.62072 
        1.59535         54.5219         9.53238 
         1.6015         53.9925         9.44503 
        1.60764         53.8617         9.35881 
        1.61376         53.5651         9.27392 
        1.61989         53.2146         9.19002 
        1.62604         53.1148         9.10697 
        1.63218         52.9375           9.025 
        1.63831         52.6167         8.94423 
        1.64444         52.3254         8.86442 
        1.65059         51.9545          8.7854 
        1.65673         51.8015         8.70744 
        1.66285         51.5135         8.63064 
        1.66898         51.2754         8.55474 
        1.67512         50.9821         8.47961 
        1.68127         50.6952         8.40532 
         1.6874          50.591         8.33208 
        1.69353         50.2682         8.25976 
        1.69967          50.037         8.18813 
        1.70581         49.9638         8.11738 
        1.71193         49.6856         8.04774 
        1.71806         49.2394         7.97876 
        1.72421         49.1533         7.91046 
        1.73035         48.8701         7.84304 
        1.73649          48.487         7.77642 
        1.74262         48.4688         7.71063 
        1.74876         48.2663         7.64556 
        1.75489         47.9587         7.58137 
        1.76101         47.7923         7.51795 
        1.76715         47.5003         7.45516 
        1.77329         47.2979         7.39302 
        1.77943         47.0906         7.33156 
        1.78557         46.9249         7.27089 
        1.79171         46.6245          7.2109 
        1.79785         46.4295         7.15158 
        1.80399         46.2681         7.09294 
        1.81012         46.0782         7.03503 
        1.81625         45.6571          6.9778 
        1.82239         45.5621         6.92113 
        1.82853         45.2153         6.86511 
        1.83466         45.1567         6.80977 
        1.84078         44.7861          6.7551 
        1.84692         44.6387         6.70095 
        1.85306         44.4481         6.64732 
         1.8592         44.1903         6.59436 
        1.86533          44.051         6.54201 
        1.87147         43.8874         6.49018 
        1.87761         43.7199         6.43888 
        1.88375         43.4626         6.38819 
        1.88988         43.4263         6.33811 
        1.89601         43.0794         6.28854 
        1.90215         42.9154         6.23946 
        1.90829         42.8103         6.19093 
        1.91442         42.5504         6.14291 
        1.92056          42.336         6.09544 
         1.9267         42.0454         6.04842 
        1.93284         41.9114         6.00188 
        1.93897         41.7683         5.95591 
        1.94509          41.486         5.91052 
        1.95123         41.4179          5.8655 
        1.95737         41.1506         5.82091 
        1.96349         40.9627          5.7769 
        1.96964         40.8501         5.73321 
        1.97578         40.6149         5.68997 
        1.98192          40.444         5.64725 
        1.98805         40.2831         5.60497 
        1.99419         40.0023         5.56313 
        2.00033         39.8642         5.52169 
        2.00647         39.6901         5.48068 
         2.0126         39.5055         5.44016 
        2.01874         39.3687         5.39999 
        2.02488         39.2461          5.3602 
        2.03101         38.9775         5.32088 
        2.03714         38.8181         5.28199 
        2.04328         38.6125         5.24344 
        2.04941         38.4411         5.20532 
        2.05554         38.2251          5.1676 
        2.06167         38.1731          5.1302 
        2.06781         37.9452         5.09317 
        2.07396         37.7672         5.05645 
        2.08009         37.6403         5.02016 
        2.08622         37.4123         4.98427 
        2.09237         37.2431         4.94866 
        2.09851         37.0579         4.91339 
        2.10464         36.9522         4.87853 
        2.11077         36.8007         4.84404 
        2.11691         36.6111         4.80981 
        2.12305         36.4116         4.77591 
        2.12918         36.3309         4.74242 
        2.13531         36.0961         4.70925 
        2.14145         36.0318         4.67632 
         2.1476         35.7916         4.64367 
        2.15372         35.5965         4.61149 
        2.15985         35.4888         4.57958 
        2.16599          35.453         4.54789 
        2.17213          35.309         4.51652 
        2.17827         35.0069         4.48547 
         2.1844         34.8698         4.45473 
        2.19054         34.7086         4.42427 
        2.19666         34.5827         4.39414 
         2.2028         34.4255         4.36426 
        2.20893         34.3258         4.33465 
        2.21508         34.1626         4.30528 
        2.22122          33.948         4.27617 
        2.22736         33.8541         4.24739 
        2.23349         33.7211         4.21888 
        2.23962         33.5052         4.19063 
        2.24577         33.3638          4.1626 
         2.2519         33.2279         4.13487 
        2.25802         33.1133         4.10744 
        2.26417         32.9763         4.08019 
        2.27031         32.8853         4.05315 
        2.27644         32.6317         4.02644 
        2.28257         32.5413         3.99997 
        2.28872         32.3618         3.97369 
        2.29486         32.3071         3.94766 
        2.30099         32.1474          3.9219 
        2.30712         32.0087         3.89637 
        2.31326         31.9166         3.87103 
         2.3194          31.754         3.84592 
        2.32553         31.5713         3.82108 
        2.33166         31.4475         3.79647 
         2.3378         31.3045         3.77204 
        2.34394         31.1155         3.74782 
        2.35007         31.0191         3.72385 
        2.35619         30.9606         3.70011 
        2.36233         30.8531         3.67653 
        2.36848         30.6189         3.65311 
        2.37462         30.5533         3.62993 
        2.38075         30.4021         3.60698 
        2.38689         30.3389         3.58421 
        2.39303         30.1449         3.56165 
        2.39916         29.9745         3.53929 
        2.40529         29.7949         3.51714 
        2.41143         29.7536         3.49515 
        2.41757         29.6533         3.47334 
         2.4237         29.4845         3.45176 
        2.42983         29.3836         3.43037 
        2.43598         29.2241          3.4091 
        2.44211         29.1099         3.38805 
        2.44823         28.9719         3.36722 
        2.45437         28.9026          3.3465 
        2.46052         28.7255         3.32595 
        2.46665          28.668         3.30561 
        2.47279         28.5404         3.28544 
        2.47892         28.3679         3.26543 
        2.48507         28.2658         3.24556 
         2.4912         28.1672          3.2259 
