# k  (h/Mpc)    P(k)  (Mpc/h)^3    P_linear(k)  (Mpc/h)^3
     0.00783031         532.169          543.17 
       0.013688         659.334         668.186 
       0.019231         666.544         673.414 
      0.0249154         610.972         619.192 
      0.0312784         528.196         532.956 
      0.0375637         449.202         451.927 
      0.0433917         389.615         392.912 
      0.0492413         348.518         350.809 
      0.0555754         316.671         320.048 
      0.0619321         296.052         297.416 
       0.067871         274.844         277.695 
      0.0738098         253.198         255.898 
      0.0800417         227.406         230.206 
      0.0862327           201.9         203.719 
      0.0921407         178.932         180.214 
      0.0982031          158.71         160.072 
       0.104506         144.016         144.389 
       0.110769         133.222         133.686 
       0.116806          125.58          126.62 
       0.122832         120.408          121.06 
       0.129052          114.18         115.294 
       0.135211         107.488         108.578 
       0.141259         100.237         100.865 
       0.147318         92.3289         92.5552 
       0.153489         84.0028         84.3497 
       0.159709         76.9479         77.1396 
       0.165845          71.793         71.4977 
       0.171974         67.1871         67.3279 
       0.178125          64.247         64.2835 
       0.184229         61.9554         61.8862 
        0.19034         59.2351         59.5998 
       0.196428         57.0096         57.0731 
       0.202534          54.445         54.1561 
       0.208729         51.0226         50.9007 
       0.214876         47.6255         47.6191 
       0.220989         44.9512          44.573 
       0.227147         42.0305         41.9229 
        0.23329         39.9153         39.7723 
       0.239377         38.3226         38.0794 
       0.245482         36.7362         36.6882 
       0.251667         35.7299         35.4263 
       0.257832         34.4017         34.1669 
       0.263955         33.1052         32.8292 
       0.270079         31.6969         31.3928 
        0.27624          30.396          29.896 
       0.282372         28.9585         28.4365 
        0.28843         27.5207         27.0984 
       0.294538         26.3401         25.9035 
       0.300721         25.4542         24.8629 
        0.30691         24.3994          23.966 
       0.313033         23.6324         23.1761 
       0.319153         22.6793         22.4316 
       0.325316         22.2183         21.6866 
        0.33145         21.4104         20.9291 
       0.337538         20.6611         20.1622 
       0.343633         19.8444         19.3965 
       0.349808         19.1721         18.6465 
       0.355968         18.4857          17.947 
       0.362074          17.829         17.3123 
       0.368217         17.2707         16.7354 
       0.374374         16.6775         16.2081 
       0.380519         16.2495         15.7184 
       0.386598          15.813         15.2549 
       0.392688         15.4034         14.7989 
        0.39888         14.9119         14.3393 
       0.405048         14.4852         13.8859 
       0.411186         14.0631         13.4436 
       0.417313         13.5836         13.0186 
       0.423458         13.2113         12.6146 
       0.429607         12.7984         12.2348 
       0.435692          12.434         11.8836 
       0.441815         12.1231         11.5515 
       0.447964           11.87         11.2342 
       0.454126         11.4757         10.9281 
       0.460267          11.203         10.6318 
       0.466387         10.8653         10.3428 
        0.47254         10.6284         10.0584 
       0.478662         10.3835         9.78371 
       0.484765         10.0733         9.51967 
       0.490885         9.82187          9.2657 
       0.497035         9.65869         9.02179 
       0.503198          9.3868         8.78912 
       0.509342         9.16478         8.56768 
       0.515458         8.93499         8.35588 
       0.521598          8.7418          8.1502 
       0.527764          8.5147         7.94967 
       0.533884         8.36268         7.75637 
           0.54         8.15909         7.56874 
       0.546137         7.98859         7.38587 
       0.552299         7.81702         7.20798 
       0.558452         7.59417         7.03647 
       0.564573         7.46601         6.87213 
       0.570708          7.3053         6.71365 
       0.576825         7.12128         6.56127 
       0.582926         6.99493         6.41431 
       0.589034         6.79841         6.27159 
       0.595184         6.67951           6.132 
       0.601379         6.53235         5.99547 
       0.607522         6.42981         5.86404 
       0.613639         6.32861         5.73704 
       0.619772         6.15536         5.61351 
       0.625918         6.06868         5.49344 
       0.632068         5.96703         5.37689 
       0.638161         5.82315         5.26485 
         0.6443         5.70382         5.15531 
       0.650464         5.57924          5.0486 
       0.656582         5.50991         4.94578 
       0.662703         5.40426         4.84585 
       0.668861          5.3145         4.74816 
       0.675024          5.1993         4.65311 
       0.681124         5.09714          4.5616 
       0.687237         5.02293         4.47235 
       0.693381          4.9365         4.38505 
       0.699536         4.80666         4.29993 
       0.705665         4.73724         4.21745 
       0.711789         4.66171         4.13722 
       0.717957         4.57326         4.05855 
        0.72409         4.49466         3.98241 
       0.730186         4.42014         3.90872 
       0.736317          4.3736         3.83652 
       0.742472         4.29715         3.76591 
       0.748622         4.21358         3.69717 
        0.75476          4.1275         3.63031 
       0.760888         4.06682         3.56522 
       0.767043         4.01966         3.50148 
       0.773185          3.9343         3.43945 
       0.779291         3.88659         3.37928 
       0.785407         3.82035         3.32047 
       0.791564         3.76345          3.2627 
       0.797719         3.70708         3.20635 
       0.803834         3.65981          3.1517 
       0.809972         3.60509         3.09813 
       0.816124         3.53614         3.04571 
       0.822261         3.47335         2.99465 
       0.828378         3.43056         2.94492 
       0.834502          3.3947         2.89629 
       0.840667         3.32129         2.84845 
       0.846816         3.27091         2.80184 
       0.852925         3.24142         2.75657 
       0.859047         3.19324         2.71221 
       0.865192         3.14827          2.6687 
       0.871341         3.10725         2.62612 
       0.877463         3.06676         2.58467 
       0.883569          3.0105         2.54422 
       0.889708         2.96565         2.50444 
       0.895864         2.92897         2.46542 
       0.902008         2.88265         2.42731 
       0.908149         2.85014         2.39004 
       0.914301           2.796          2.3535 
       0.920448         2.76263         2.31776 
       0.926574         2.72258         2.28289 
       0.932687         2.69008         2.24882 
       0.938823         2.66253         2.21533 
       0.944975         2.62457         2.18245 
       0.951105         2.59358         2.15036 
       0.957225         2.57248         2.11898 
       0.963368          2.5333         2.08812 
       0.969511         2.49525         2.05788 
       0.975621         2.45724          2.0284 
       0.981748          2.4356         1.99943 
       0.987916         2.40196         1.97084 
        0.99406         2.36339         1.94293 
        1.00019         2.34188         1.91561 
        1.00632         2.30966         1.88885 
        1.01246         2.28284         1.86256 
        1.01859         2.25714         1.83682 
        1.02471         2.22615          1.8116 
        1.03085         2.20346         1.78678 
        1.03698         2.17207         1.76247 
        1.04314         2.15092         1.73851 
        1.04929         2.12178         1.71506 
        1.05541         2.09918         1.69214 
        1.06154         2.07362         1.66959 
        1.06769          2.0521         1.64741 
        1.07382         2.02588         1.62571 
        1.07993         1.99605         1.60445 
        1.08607         1.98515         1.58349 
        1.09222         1.95686         1.56289 
        1.09836          1.9423         1.54267 
        1.10449         1.91897         1.52284 
        1.11063         1.89148         1.50334 
        1.11677         1.86994         1.48418 
         1.1229         1.85034          1.4654 
        1.12903         1.82761         1.44693 
        1.13518         1.81317         1.42876 
        1.14131         1.78712         1.41092 
        1.14745          1.7581         1.39339 
        1.15359         1.74954         1.37616 
        1.15973         1.72255         1.35921 
        1.16584         1.71606         1.34263 
        1.17197         1.69436          1.3263 
        1.17811         1.67804          1.3102 
        1.18424         1.66467         1.29441 
        1.19038         1.64249         1.27883 
        1.19652         1.62387         1.26352 
        1.20267         1.61228         1.24847 
        1.20881         1.58947         1.23366 
        1.21495         1.57825         1.21911 
        1.22108         1.56219         1.20481 
         1.2272         1.55055         1.19076 
        1.23334         1.52995         1.17691 
        1.23949         1.51312         1.16325 
        1.24562         1.50206         1.14985 
        1.25174         1.48531         1.13668 
        1.25789         1.47196         1.12367 
        1.26402         1.45241         1.11089 
        1.27014         1.43909         1.09835 
        1.27628         1.43258         1.08596 
        1.28244         1.41087         1.07374 
        1.28858         1.39991         1.06172 
        1.29471         1.38665         1.04992 
        1.30084          1.3715         1.03831 
        1.30697         1.36077         1.02685 
        1.31312         1.34079         1.01556 
        1.31925         1.33437         1.00447 
        1.32537          1.3221        0.993556 
        1.33151         1.31133        0.982767 
        1.33765         1.29647        0.972146 
        1.34378         1.28182        0.961703 
        1.34992           1.276        0.951407 
        1.35606         1.25905        0.941239 
         1.3622         1.25106        0.931239 
        1.36833         1.23861        0.921408 
        1.37445         1.22417        0.911725 
        1.38059          1.2149        0.902152 
        1.38675         1.21153        0.892694 
        1.39288         1.19461        0.883409 
        1.39901         1.18384        0.874262 
        1.40515         1.17455        0.865223 
         1.4113         1.16332        0.856317 
        1.41742          1.1532        0.847571 
        1.42355         1.14904         0.83893 
         1.4297         1.13267        0.830385 
        1.43585         1.12466        0.821963 
        1.44198         1.11949         0.81369 
        1.44809         1.10399        0.805547 
        1.45423         1.09588        0.797486 
        1.46036         1.08698         0.78955 
        1.46649         1.07755         0.78172 
        1.47263         1.06783        0.773991 
        1.47877         1.05754        0.766369 
        1.48491         1.04923        0.758838 
        1.49104         1.04043        0.751425 
        1.49718          1.0346        0.744106 
        1.50333         1.02365        0.736873 
        1.50947         1.01763        0.729751 
         1.5156         1.00764        0.722733 
        1.52172        0.999474        0.715808 
        1.52787        0.990373        0.708961 
          1.534        0.984825        0.702211 
        1.54013        0.973523        0.695556 
        1.54627        0.965815        0.688976 
        1.55241        0.957787         0.68248 
        1.55855        0.950702        0.676078 
        1.56467        0.945601        0.669775 
         1.5708        0.934557        0.663535 
        1.57695        0.930547        0.657366 
        1.58308        0.922863         0.65129 
        1.58922        0.914925        0.645286 
        1.59535        0.908139        0.639361 
         1.6015        0.901216        0.633502 
        1.60764         0.89526        0.627719 
        1.61376         0.88638        0.622025 
        1.61989        0.881011        0.616398 
        1.62604        0.873309        0.610827 
        1.63218        0.869188        0.605329 
        1.63831        0.860217        0.599912 
        1.64444        0.853616        0.594559 
        1.65059        0.848541        0.589259 
        1.65673        0.840837         0.58403 
        1.66285        0.834541        0.578879 
        1.66898        0.831039        0.573788 
        1.67512        0.821683        0.568749 
        1.68127        0.815893        0.563766 
         1.6874        0.812474        0.558854 
        1.69353        0.804226        0.554003 
        1.69967        0.798367        0.549199 
        1.70581        0.794053        0.544454 
        1.71193        0.787557        0.539782 
        1.71806        0.782812        0.535156 
        1.72421        0.776488        0.530575 
        1.73035        0.769953        0.526053 
        1.73649        0.766408        0.521585 
        1.74262        0.760716        0.517172 
        1.74876        0.754368        0.512807 
        1.75489        0.748223        0.508502 
        1.76101        0.743188        0.504248 
        1.76715        0.738542        0.500037 
        1.77329        0.733836        0.495869 
        1.77943        0.727661        0.491747 
        1.78557        0.722625        0.487677 
        1.79171        0.719016        0.483654 
        1.79785        0.713342        0.479675 
        1.80399        0.708545        0.475742 
        1.81012        0.704652        0.471858 
        1.81625        0.698702        0.468019 
        1.82239         0.69504        0.464218 
        1.82853        0.687198        0.460461 
        1.83466        0.684441        0.456749 
        1.84078        0.678952        0.453082 
        1.84692        0.676219         0.44945 
        1.85306        0.671254        0.445853 
         1.8592        0.667549        0.442301 
        1.86533        0.662587         0.43879 
        1.87147        0.658131        0.435313 
        1.87761        0.654051        0.431872 
        1.88375        0.647589        0.428473 
        1.88988        0.645457        0.425114 
        1.89601        0.640148        0.421789 
        1.90215        0.636856        0.418497 
        1.90829        0.631771        0.415242 
        1.91442         0.62772        0.412021 
        1.92056        0.624412        0.408837 
         1.9267        0.619556        0.405684 
        1.93284        0.616926        0.402562 
        1.93897        0.612564        0.399479 
        1.94509        0.608683        0.396434 
        1.95123        0.604059        0.393414 
        1.95737        0.600987        0.390424 
        1.96349        0.596223        0.387472 
        1.96964        0.593153        0.384542 
        1.97578        0.589062        0.381641 
        1.98192        0.586999        0.378776 
        1.98805        0.581876         0.37594 
        1.99419        0.578875        0.373134 
        2.00033         0.57636        0.370354 
        2.00647        0.571594        0.367604 
         2.0126        0.568231        0.364886 
        2.01874        0.565176        0.362192 
        2.02488        0.562263        0.359523 
        2.03101        0.557169        0.356885 
        2.03714        0.553514        0.354277 
        2.04328        0.551859        0.351692 
        2.04941        0.548072        0.349134 
        2.05554        0.544427        0.346605 
        2.06167        0.541285        0.344096 
        2.06781        0.537001        0.341613 
        2.07396         0.53362         0.33915 
        2.08009        0.531196        0.336716 
        2.08622        0.527824        0.334309 
        2.09237        0.526429         0.33192 
        2.09851        0.523094        0.329554 
        2.10464        0.520022        0.327216 
        2.11077        0.516401        0.324903 
        2.11691         0.51309        0.322607 
        2.12305        0.510284        0.320333 
        2.12918        0.507458        0.318087 
        2.13531        0.504251        0.315862 
        2.14145        0.501665        0.313654 
         2.1476        0.498394        0.311463 
        2.15372        0.496818        0.309305 
        2.15985        0.492578        0.307165 
        2.16599        0.489395        0.305039 
        2.17213        0.487297        0.302936 
        2.17827        0.485559        0.300853 
         2.1844        0.482966        0.298791 
        2.19054        0.480225        0.296748 
        2.19666        0.476475        0.294727 
         2.2028        0.474288        0.292723 
        2.20893        0.471651        0.290737 
        2.21508        0.469295        0.288767 
        2.22122        0.465304        0.286814 
        2.22736        0.463267        0.284884 
        2.23349        0.461963        0.282972 
        2.23962        0.459085        0.281077 
        2.24577         0.45534        0.279197 
         2.2519        0.453847        0.277337 
        2.25802        0.450937        0.275498 
        2.26417        0.448165        0.273669 
        2.27031        0.445798        0.271856 
        2.27644        0.444139        0.270064 
        2.28257        0.441557        0.268289 
        2.28872        0.438976        0.266527 
        2.29486        0.436444         0.26478 
        2.30099        0.434181        0.263053 
        2.30712        0.432365        0.261341 
        2.31326        0.429701         0.25964 
         2.3194        0.428979        0.257957 
        2.32553        0.426299         0.25629 
        2.33166        0.423948         0.25464 
         2.3378        0.421642        0.253001 
        2.34394        0.417978        0.251377 
        2.35007        0.416615        0.249769 
        2.35619        0.414599        0.248177 
        2.36233        0.411508        0.246595 
        2.36848        0.410427        0.245024 
        2.37462        0.407632         0.24347 
        2.38075        0.406775        0.241931 
        2.38689        0.403911        0.240403 
        2.39303        0.402727         0.23889 
        2.39916        0.399366         0.23739 
        2.40529        0.397885        0.235904 
        2.41143        0.396261         0.23443 
        2.41757        0.394027        0.232967 
         2.4237        0.392118         0.23152 
        2.42983        0.390362        0.230085 
        2.43598        0.388474        0.228658 
        2.44211        0.386813        0.227246 
        2.44823        0.385017        0.225849 
        2.45437        0.382239         0.22446 
        2.46052         0.38159        0.223081 
        2.46665        0.378872        0.221716 
        2.47279        0.376855        0.220364 
        2.47892        0.374715        0.219021 
        2.48507        0.373461        0.217689 
         2.4912        0.371753         0.21637 
