# k  (h/Mpc)    P(k)  (Mpc/h)^3    P_linear(k)  (Mpc/h)^3
     0.00783031         839.087         853.932 
       0.013688          1040.6         1050.29 
       0.019231         1051.43         1058.43 
      0.0249154         962.732         973.169 
      0.0312784          832.64         837.612 
      0.0375637          708.41         710.252 
      0.0433917         613.937         617.497 
      0.0492413         549.437         551.324 
      0.0555754         498.747         502.977 
      0.0619321         467.048         467.408 
       0.067871         433.018         436.414 
      0.0738098         398.882         402.159 
      0.0800417         358.071          361.78 
      0.0862327         318.112         320.154 
      0.0921407         282.111         283.214 
      0.0982031         250.109          251.56 
       0.104506         227.316         226.914 
       0.110769         210.253         210.094 
       0.116806         198.033         198.989 
       0.122832         189.993         190.251 
       0.129052         179.971         181.189 
       0.135211         169.437         170.635 
       0.141259         158.168         158.513 
       0.147318         145.803         145.454 
       0.153489         132.612         132.559 
       0.159709         121.587         121.228 
       0.165845         113.614         112.361 
       0.171974         106.232         105.808 
       0.178125         101.621         101.024 
       0.184229         98.0228         97.2563 
        0.19034         93.5298         93.6632 
       0.196428         90.1673         89.6923 
       0.202534         86.2352         85.1082 
       0.208729         80.7964         79.9922 
       0.214876         75.3929          74.835 
       0.220989         71.3096         70.0479 
       0.227147         66.6247         65.8832 
        0.23329           63.31         62.5034 
       0.239377         60.8582          59.843 
       0.245482         58.2192         57.6568 
       0.251667         56.7301         55.6736 
       0.257832         54.6467         53.6943 
       0.263955         52.5779         51.5921 
       0.270079         50.3675         49.3348 
        0.27624         48.4022         46.9826 
       0.282372          46.143         44.6889 
        0.28843         43.8602          42.586 
       0.294538         41.9883         40.7082 
       0.300721          40.654         39.0728 
        0.30691         38.9386         37.6634 
       0.313033         37.7284         36.4219 
       0.319153          36.147         35.2519 
       0.325316         35.4894         34.0812 
        0.33145         34.1797         32.8907 
       0.337538         33.0408         31.6855 
       0.343633         31.7435         30.4822 
       0.349808         30.6943         29.3035 
       0.355968         29.6251         28.2043 
       0.362074         28.5864         27.2068 
       0.368217         27.7031         26.3001 
       0.374374         26.7696         25.4716 
       0.380519         26.0946         24.7019 
       0.386598         25.3978         23.9736 
       0.392688          24.772          23.257 
        0.39888         23.9887         22.5346 
       0.405048         23.3303         21.8221 
       0.411186         22.6758          21.127 
       0.417313         21.8946         20.4591 
       0.423458         21.3006         19.8243 
       0.429607         20.6557         19.2273 
       0.435692         20.0569         18.6755 
       0.441815         19.5918         18.1536 
       0.447964         19.2099          17.655 
       0.454126         18.5378         17.1738 
       0.460267         18.1312         16.7082 
       0.466387         17.5727          16.254 
        0.47254         17.2285         15.8071 
       0.478662         16.8566         15.3754 
       0.484765         16.3455         14.9604 
       0.490885         15.9432         14.5613 
       0.497035         15.7032          14.178 
       0.503198          15.268         13.8124 
       0.509342         14.8974         13.4644 
       0.515458          14.537         13.1315 
       0.521598         14.2416         12.8083 
       0.527764         13.8866         12.4931 
       0.533884         13.6431         12.1894 
           0.54         13.3211         11.8945 
       0.546137          13.057         11.6071 
       0.552299         12.7961         11.3276 
       0.558452         12.4139          11.058 
       0.564573         12.2259         10.7998 
       0.570708          11.975         10.5507 
       0.576825         11.6664         10.3112 
       0.582926         11.4614         10.0803 
       0.589034         11.1409           9.856 
       0.595184         10.9633         9.63662 
       0.601379         10.7236         9.42206 
       0.607522         10.5614         9.21551 
       0.613639         10.4091         9.01592 
       0.619772         10.1243          8.8218 
       0.625918         10.0135         8.63311 
       0.632068         9.84748         8.44995 
       0.638161         9.60751         8.27388 
         0.6443         9.41027         8.10173 
       0.650464         9.21413         7.93403 
       0.656582         9.12212         7.77244 
       0.662703         8.94871          7.6154 
       0.668861         8.79123         7.46188 
       0.675024         8.60808          7.3125 
       0.681124         8.45062         7.16869 
       0.687237         8.32471         7.02843 
       0.693381         8.19688         6.89124 
       0.699536         7.97582         6.75747 
       0.705665         7.87802         6.62784 
       0.711789         7.74758         6.50176 
       0.717957         7.61055         6.37814 
        0.72409         7.47974         6.25848 
       0.730186         7.36916         6.14267 
       0.736317         7.29075         6.02921 
       0.742472         7.16973         5.91824 
       0.748622         7.03995         5.81021 
        0.75476          6.8939         5.70514 
       0.760888          6.8036         5.60285 
       0.767043         6.72108         5.50268 
       0.773185         6.58055         5.40519 
       0.779291         6.51675         5.31063 
       0.785407         6.40758         5.21822 
       0.791564         6.31033         5.12743 
       0.797719          6.2069         5.03888 
       0.803834         6.14721         4.95299 
       0.809972          6.0686         4.86881 
       0.816124         5.94559         4.78642 
       0.822261         5.84577         4.70618 
       0.828378         5.77487         4.62803 
       0.834502         5.72219          4.5516 
       0.840667         5.60517         4.47642 
       0.846816         5.51544         4.40317 
       0.852925         5.46782         4.33203 
       0.859047         5.39097         4.26233 
       0.865192         5.33037         4.19394 
       0.871341         5.26633         4.12702 
       0.877463         5.18825         4.06188 
       0.883569         5.09772         3.99832 
       0.889708         5.01915         3.93581 
       0.895864         4.96634         3.87448 
       0.902008          4.8981         3.81459 
       0.908149         4.84561         3.75602 
       0.914301         4.76174         3.69859 
       0.920448          4.7002         3.64243 
       0.926574         4.63549         3.58764 
       0.932687         4.58808         3.53409 
       0.938823         4.53294         3.48146 
       0.944975         4.47169         3.42979 
       0.951105         4.42371         3.37936 
       0.957225         4.39717         3.33004 
       0.963368          4.3308         3.28154 
       0.969511          4.2708         3.23401 
       0.975621         4.21021         3.18769 
       0.981748         4.17004         3.14216 
       0.987916         4.12016         3.09723 
        0.99406         4.05153         3.05337 
        1.00019         4.00674         3.01044 
        1.00632         3.97166         2.96838 
        1.01246          3.9261         2.92707 
        1.01859         3.87749         2.88662 
        1.02471         3.83119         2.84699 
        1.03085         3.78902         2.80797 
        1.03698          3.7384         2.76977 
        1.04314          3.7062         2.73213 
        1.04929         3.65808         2.69527 
        1.05541         3.61667         2.65925 
        1.06154          3.5808         2.62381 
        1.06769         3.55346         2.58895 
        1.07382         3.49946         2.55485 
        1.07993         3.45444         2.52145 
        1.08607         3.43625         2.48851 
        1.09222         3.39222         2.45612 
        1.09836         3.36346         2.42435 
        1.10449         3.32525         2.39319 
        1.11063         3.28448         2.36254 
        1.11677         3.25405         2.33244 
         1.1229         3.21976         2.30292 
        1.12903         3.18063         2.27389 
        1.13518         3.15403         2.24534 
        1.14131         3.10977          2.2173 
        1.14745         3.06635         2.18975 
        1.15359         3.05154         2.16267 
        1.15973         3.00967         2.13604 
        1.16584         2.99067         2.10998 
        1.17197         2.95884         2.08432 
        1.17811         2.93368         2.05901 
        1.18424         2.90926          2.0342 
        1.19038         2.87904         2.00973 
        1.19652         2.84916         1.98566 
        1.20267         2.82356           1.962 
        1.20881          2.7921         1.93873 
        1.21495         2.76981         1.91587 
        1.22108         2.74288         1.89339 
         1.2272         2.72525         1.87132 
        1.23334         2.68889         1.84955 
        1.23949         2.66065         1.82809 
        1.24562          2.6456         1.80702 
        1.25174         2.61286         1.78632 
        1.25789         2.59313         1.76588 
        1.26402         2.56298          1.7458 
        1.27014         2.53966         1.72608 
        1.27628         2.52748         1.70661 
        1.28244         2.49303         1.68741 
        1.28858         2.47725         1.66853 
        1.29471         2.45036         1.64998 
        1.30084         2.42606         1.63173 
        1.30697         2.41617         1.61373 
        1.31312         2.37571         1.59598 
        1.31925         2.36582         1.57855 
        1.32537           2.344          1.5614 
        1.33151         2.32831         1.54445 
        1.33765         2.29899         1.52776 
        1.34378         2.28014         1.51134 
        1.34992         2.27087         1.49516 
        1.35606         2.23772         1.47919 
         1.3622          2.2286         1.46347 
        1.36833         2.20735         1.44802 
        1.37445         2.18574          1.4328 
        1.38059         2.17266         1.41776 
        1.38675         2.16187         1.40289 
        1.39288         2.13477          1.3883 
        1.39901         2.11456         1.37393 
        1.40515         2.09928         1.35972 
         1.4113         2.08358         1.34573 
        1.41742         2.06735         1.33198 
        1.42355         2.05646          1.3184 
         1.4297         2.03093         1.30497 
        1.43585         2.02052         1.29174 
        1.44198         2.00824         1.27874 
        1.44809         1.98305         1.26594 
        1.45423         1.96871         1.25327 
        1.46036         1.95264          1.2408 
        1.46649         1.93732          1.2285 
        1.47263          1.9212         1.21635 
        1.47877         1.90308         1.20437 
        1.48491         1.88962         1.19254 
        1.49104         1.87854         1.18089 
        1.49718         1.86594         1.16938 
        1.50333         1.84864         1.15802 
        1.50947         1.83768         1.14682 
         1.5156         1.82175          1.1358 
        1.52172         1.80797         1.12491 
        1.52787          1.7933         1.11415 
          1.534         1.78203         1.10355 
        1.54013         1.76652         1.09309 
        1.54627         1.75081         1.08275 
        1.55241          1.7375         1.07254 
        1.55855          1.7283         1.06248 
        1.56467         1.71678         1.05257 
         1.5708         1.69812         1.04277 
        1.57695          1.6905         1.03307 
        1.58308         1.67776         1.02352 
        1.58922         1.66657         1.01409 
        1.59535         1.65433         1.00477 
         1.6015         1.64261        0.995567 
        1.60764         1.63302         0.98648 
        1.61376         1.62082        0.977531 
        1.61989         1.60793        0.968687 
        1.62604         1.59485        0.959933 
        1.63218         1.59003        0.951293 
        1.63831          1.5724         0.94278 
        1.64444         1.56155        0.934367 
        1.65059         1.55473        0.926039 
        1.65673         1.54169         0.91782 
        1.66285         1.53022        0.909725 
        1.66898         1.52318        0.901725 
        1.67512         1.50805        0.893806 
        1.68127         1.49869        0.885975 
         1.6874         1.49304        0.878255 
        1.69353         1.47604        0.870633 
        1.69967         1.46685        0.863082 
        1.70581         1.46329        0.855625 
        1.71193         1.44967        0.848284 
        1.71806          1.4437        0.841014 
        1.72421         1.43223        0.833814 
        1.73035         1.42142        0.826708 
        1.73649         1.41344        0.819685 
        1.74262          1.4042        0.812751 
        1.74876         1.39603        0.805892 
        1.75489         1.38239        0.799126 
        1.76101         1.37513        0.792441 
        1.76715         1.36744        0.785823 
        1.77329         1.35954        0.779272 
        1.77943         1.34789        0.772794 
        1.78557         1.33955        0.766399 
        1.79171         1.33539        0.760076 
        1.79785         1.32339        0.753823 
        1.80399         1.31645        0.747642 
        1.81012          1.3103        0.741539 
        1.81625         1.29924        0.735506 
        1.82239         1.29138        0.729532 
        1.82853         1.27887        0.723628 
        1.83466         1.27535        0.717795 
        1.84078         1.26609        0.712032 
        1.84692         1.26103        0.706324 
        1.85306         1.25128        0.700671 
         1.8592         1.24511        0.695089 
        1.86533         1.23588        0.689571 
        1.87147         1.23023        0.684107 
        1.87761         1.22218          0.6787 
        1.88375         1.21158        0.673358 
        1.88988         1.20829        0.668079 
        1.89601         1.19919        0.662854 
        1.90215          1.1908         0.65768 
        1.90829         1.18288        0.652565 
        1.91442         1.17748        0.647503 
        1.92056         1.17108        0.642499 
         1.9267          1.1637        0.637544 
        1.93284         1.15988        0.632638 
        1.93897         1.15111        0.627792 
        1.94509         1.14374        0.623008 
        1.95123         1.13571        0.618262 
        1.95737         1.13029        0.613562 
        1.96349         1.12281        0.608923 
        1.96964         1.11796        0.604319 
        1.97578         1.11095         0.59976 
        1.98192         1.10597        0.595258 
        1.98805         1.09691        0.590801 
        1.99419          1.0937         0.58639 
        2.00033         1.08984        0.582022 
        2.00647          1.0792          0.5777 
         2.0126         1.07529        0.573429 
        2.01874         1.06819        0.569195 
        2.02488         1.06375           0.565 
        2.03101         1.05452        0.560856 
        2.03714         1.04786        0.556756 
        2.04328         1.04615        0.552694 
        2.04941         1.03795        0.548675 
        2.05554         1.03316        0.544699 
        2.06167         1.02626        0.540757 
        2.06781         1.02186        0.536854 
        2.07396         1.01477        0.532984 
        2.08009         1.01049        0.529159 
        2.08622         1.00341        0.525376 
        2.09237         1.00138        0.521622 
        2.09851        0.995381        0.517904 
        2.10464        0.991057        0.514229 
        2.11077        0.984094        0.510594 
        2.11691         0.97773        0.506987 
        2.12305         0.97416        0.503413 
        2.12918        0.968306        0.499883 
        2.13531        0.963594        0.496387 
        2.14145        0.957679        0.492916 
         2.1476        0.951917        0.489474 
        2.15372        0.948373        0.486082 
        2.15985        0.942025        0.482719 
        2.16599        0.937321        0.479378 
        2.17213        0.932476        0.476072 
        2.17827        0.929604        0.472798 
         2.1844        0.924836        0.469559 
        2.19054        0.921304        0.466348 
        2.19666        0.914941        0.463172 
         2.2028        0.909963        0.460023 
        2.20893        0.905014        0.456901 
        2.21508        0.902673        0.453805 
        2.22122        0.893919        0.450737 
        2.22736        0.890385        0.447704 
        2.23349        0.890043        0.444699 
        2.23962        0.882441         0.44172 
        2.24577        0.877802        0.438767 
         2.2519        0.872824        0.435844 
        2.25802        0.870279        0.432952 
        2.26417        0.863855        0.430079 
        2.27031        0.860962         0.42723 
        2.27644        0.856711        0.424414 
        2.28257        0.853179        0.421624 
        2.28872        0.848016        0.418854 
        2.29486        0.844592         0.41611 
        2.30099        0.839236        0.413395 
        2.30712        0.835769        0.410704 
        2.31326        0.833034        0.408033 
         2.3194        0.829385        0.405386 
        2.32553        0.825439        0.402768 
        2.33166        0.820087        0.400174 
         2.3378        0.815664        0.397599 
        2.34394        0.811046        0.395046 
        2.35007        0.807686        0.392519 
        2.35619         0.80559        0.390017 
        2.36233        0.799371        0.387532 
        2.36848         0.79696        0.385062 
        2.37462        0.792512         0.38262 
        2.38075        0.790401        0.380201 
        2.38689        0.785788        0.377801 
        2.39303          0.7829        0.375422 
        2.39916        0.777305        0.373066 
        2.40529        0.776009         0.37073 
        2.41143        0.771668        0.368413 
        2.41757        0.768162        0.366114 
         2.4237        0.765409         0.36384 
        2.42983        0.761357        0.361585 
        2.43598        0.758038        0.359343 
        2.44211        0.754941        0.357123 
        2.44823        0.750972        0.354928 
        2.45437        0.747934        0.352745 
        2.46052        0.745936        0.350578 
        2.46665        0.741661        0.348434 
        2.47279        0.738014        0.346308 
        2.47892        0.733589        0.344198 
        2.48507        0.731261        0.342105 
         2.4912        0.727693        0.340032 
