# k  (h/Mpc)    P(k)  (Mpc/h)^3    P_linear(k)  (Mpc/h)^3
     0.00783031         2704.77            2746 
       0.013688         3366.76         3375.78 
       0.019231         3394.17         3401.18 
      0.0249154         3094.31         3126.79 
      0.0312784         2680.15         2691.01 
      0.0375637         2284.17         2281.71 
      0.0433917         1973.01         1983.66 
      0.0492413         1769.08         1771.04 
      0.0555754         1599.32          1615.7 
      0.0619321         1507.27         1501.42 
       0.067871            1390         1401.84 
      0.0738098         1280.22          1291.8 
      0.0800417         1146.96         1162.09 
      0.0862327         1021.64         1028.37 
      0.0921407         909.116         909.712 
      0.0982031         804.826         808.032 
       0.104506         736.312         728.865 
       0.110769         680.788         674.835 
       0.116806         639.801         639.165 
       0.122832         614.699         611.095 
       0.129052         579.624         581.989 
       0.135211         546.235         548.085 
       0.141259         512.138         509.148 
       0.147318         473.521         467.202 
       0.153489         430.356         425.782 
       0.159709         396.716         389.386 
       0.165845         372.801         360.906 
       0.171974          348.25         339.857 
       0.178125         333.371          324.49 
       0.184229         321.703         312.388 
        0.19034         304.525         300.847 
       0.196428         295.702         288.092 
       0.202534         284.096         273.368 
       0.208729         266.432         256.935 
       0.214876         248.781          240.37 
       0.220989         237.056         224.994 
       0.227147         221.581         211.617 
        0.23329         211.183         200.761 
       0.239377         204.202         192.215 
       0.245482         193.424         185.193 
       0.251667         189.833         178.823 
       0.257832         183.351         172.466 
       0.263955         176.324         165.713 
       0.270079         169.228         158.463 
        0.27624         164.092         150.908 
       0.282372         156.831          143.54 
        0.28843          149.61         136.786 
       0.294538         143.227         130.754 
       0.300721         139.912         125.501 
        0.30691         133.681         120.974 
       0.313033         129.883         116.987 
       0.319153         124.136         113.229 
       0.325316         122.046         109.468 
        0.33145         117.466         105.644 
       0.337538          114.63         101.773 
       0.343633         110.389         97.9082 
       0.349808         106.864         94.1224 
       0.355968         103.847         90.5916 
       0.362074         100.452         87.3878 
       0.368217         97.5106         84.4755 
       0.374374         94.6189         81.8143 
       0.380519         92.3405          79.342 
       0.386598         89.8658         77.0028 
       0.392688         88.0608          74.701 
        0.39888         85.5315         72.3807 
       0.405048         83.4299         70.0921 
       0.411186         81.4226         67.8594 
       0.417313         78.8583         65.7141 
       0.423458         76.8859         63.6751 
       0.429607         74.8539         61.7577 
       0.435692         72.4227         59.9853 
       0.441815         71.4828          58.309 
       0.447964         70.2643         56.7074 
       0.454126         67.3211          55.162 
       0.460267         66.3127         53.6662 
       0.466387         64.5984         52.2075 
        0.47254         63.5594         50.7722 
       0.478662         62.5072         49.3854 
       0.484765          60.664         48.0526 
       0.490885         59.3666         46.7707 
       0.497035         58.5842         45.5395 
       0.503198         57.0041          44.365 
       0.509342         55.5709         43.2473 
       0.515458         54.5588         42.1782 
       0.521598         53.7087         41.1399 
       0.527764         52.6691         40.1277 
       0.533884         51.7763          39.152 
           0.54          50.675         38.2049 
       0.546137         49.9682         37.2818 
       0.552299         49.1907         36.3839 
       0.558452         47.7257         35.5181 
       0.564573         46.9631         34.6886 
       0.570708         46.3089         33.8886 
       0.576825         45.2889         33.1195 
       0.582926         44.3989         32.3776 
       0.589034         43.3357         31.6572 
       0.595184         42.8057         30.9526 
       0.601379         42.1084         30.2634 
       0.607522         41.2193            29.6 
       0.613639         40.9353         28.9589 
       0.619772         39.8901         28.3354 
       0.625918         39.6712         27.7293 
       0.632068         39.0438          27.141 
       0.638161         38.3102         26.5755 
         0.6443         37.6043         26.0225 
       0.650464         36.9899         25.4839 
       0.656582         36.7282         24.9649 
       0.662703         36.0038         24.4605 
       0.668861         35.4153         23.9674 
       0.675024         34.8465         23.4876 
       0.681124         34.2431         23.0257 
       0.687237          33.674         22.5752 
       0.693381         33.4176         22.1345 
       0.699536           32.62         21.7048 
       0.705665          32.628         21.2885 
       0.711789         31.8414         20.8835 
       0.717957         31.4629         20.4864 
        0.72409         31.0222         20.1021 
       0.730186         30.5646         19.7301 
       0.736317          30.295         19.3657 
       0.742472         29.7606         19.0093 
       0.748622         29.5021         18.6623 
        0.75476         29.0261         18.3248 
       0.760888         28.5973         17.9962 
       0.767043           28.28         17.6745 
       0.773185         27.8131         17.3613 
       0.779291         27.6874         17.0576 
       0.785407         27.3709         16.7608 
       0.791564         26.8799         16.4692 
       0.797719         26.3201         16.1847 
       0.803834         26.2939         15.9089 
       0.809972         26.0231         15.6385 
       0.816124         25.4514         15.3739 
       0.822261          25.265         15.1161 
       0.828378         25.0322         14.8651 
       0.834502          24.768         14.6196 
       0.840667         24.4663         14.3782 
       0.846816         24.0539         14.1429 
       0.852925         23.8395         13.9144 
       0.859047         23.5722         13.6905 
       0.865192         23.3496         13.4708 
       0.871341         23.2022         13.2559 
       0.877463         22.7588         13.0467 
       0.883569         22.5189         12.8425 
       0.889708         22.2391         12.6417 
       0.895864         22.0636         12.4447 
       0.902008         21.8942         12.2524 
       0.908149         21.6598         12.0642 
       0.914301         21.5572         11.8798 
       0.920448         21.1298         11.6994 
       0.926574         20.9771         11.5234 
       0.932687         20.7538         11.3514 
       0.938823         20.4817         11.1824 
       0.944975         20.2979         11.0164 
       0.951105         20.1247         10.8544 
       0.957225         19.9108          10.696 
       0.963368         19.7732         10.5402 
       0.969511         19.5962         10.3876 
       0.975621         19.4316         10.2388 
       0.981748         19.1614         10.0925 
       0.987916         19.0597         9.94824 
        0.99406         18.8206         9.80733 
        1.00019         18.5808         9.66945 
        1.00632         18.5159         9.53436 
        1.01246         18.3547         9.40168 
        1.01859          18.075         9.27175 
        1.02471         18.0257         9.14445 
        1.03085         17.8511         9.01913 
        1.03698         17.5711         8.89643 
        1.04314         17.4793         8.77552 
        1.04929         17.2776         8.65714 
        1.05541         17.1039         8.54145 
        1.06154          17.007         8.42759 
        1.06769         16.9116         8.31565 
        1.07382         16.7018         8.20612 
        1.07993         16.6129         8.09882 
        1.08607         16.4172         7.99301 
        1.09222         16.3199         7.88899 
        1.09836          16.122         7.78695 
        1.10449         16.0272         7.68685 
        1.11063         15.8501         7.58841 
        1.11677         15.7941         7.49173 
         1.1229         15.7027         7.39692 
        1.12903         15.4951         7.30367 
        1.13518         15.3261         7.21196 
        1.14131          15.278         7.12189 
        1.14745         15.1543         7.03342 
        1.15359         15.0573         6.94644 
        1.15973         14.9113         6.86091 
        1.16584         14.7117          6.7772 
        1.17197         14.6832         6.69478 
        1.17811          14.551         6.61349 
        1.18424         14.4276         6.53379 
        1.19038         14.3735         6.45518 
        1.19652          14.236          6.3779 
        1.20267          14.111         6.30189 
        1.20881         14.0559         6.22714 
        1.21495         13.9559         6.15372 
        1.22108         13.8052         6.08151 
         1.2272         13.6952         6.01063 
        1.23334         13.5983         5.94072 
        1.23949         13.4742         5.87176 
        1.24562         13.4336          5.8041 
        1.25174         13.3438         5.73761 
        1.25789         13.2408         5.67196 
        1.26402         13.1848         5.60746 
        1.27014         13.0598         5.54413 
        1.27628         12.9046          5.4816 
        1.28244         12.8493         5.41991 
        1.28858         12.8249         5.35926 
        1.29471         12.6879         5.29968 
        1.30084         12.5731         5.24107 
        1.30697         12.5276         5.18326 
        1.31312         12.3861         5.12624 
        1.31925         12.3035         5.07026 
        1.32537         12.2638         5.01518 
        1.33151         12.1723         4.96072 
        1.33765         12.0926         4.90711 
        1.34378         12.0127          4.8544 
        1.34992         11.8972         4.80242 
        1.35606          11.866          4.7511 
         1.3622         11.7903         4.70062 
        1.36833         11.6826           4.651 
        1.37445         11.6378         4.60212 
        1.38059         11.5713          4.5538 
        1.38675         11.4529         4.50606 
        1.39288         11.4202         4.45919 
        1.39901         11.3117         4.41302 
        1.40515         11.2643         4.36739 
         1.4113         11.1912         4.32244 
        1.41742         11.1153         4.27829 
        1.42355         11.0421         4.23468 
         1.4297          10.989         4.19154 
        1.43585         10.9454         4.14903 
        1.44198          10.868         4.10727 
        1.44809         10.7993         4.06617 
        1.45423         10.7235         4.02548 
        1.46036         10.6628         3.98542 
        1.46649         10.6169         3.94589 
        1.47263         10.5181         3.90688 
        1.47877         10.4662         3.86841 
        1.48491         10.4183         3.83039 
        1.49104          10.358         3.79297 
        1.49718         10.2965         3.75603 
        1.50333         10.2461         3.71952 
        1.50947         10.1772         3.68357 
         1.5156         10.1137         3.64815 
        1.52172         10.0698         3.61319 
        1.52787         9.99842         3.57863 
          1.534         9.93454         3.54455 
        1.54013         9.88105         3.51096 
        1.54627         9.81148         3.47775 
        1.55241         9.77631         3.44496 
        1.55855          9.7298         3.41264 
        1.56467         9.65801         3.38083 
         1.5708         9.64504         3.34933 
        1.57695         9.55679         3.31819 
        1.58308         9.50365         3.28752 
        1.58922         9.46957         3.25721 
        1.59535         9.42598          3.2273 
         1.6015         9.35168         3.19773 
        1.60764         9.29154         3.16854 
        1.61376         9.27715          3.1398 
        1.61989         9.20508         3.11139 
        1.62604         9.17258         3.08328 
        1.63218          9.1289         3.05552 
        1.63831         9.08574         3.02818 
        1.64444         9.02328         3.00116 
        1.65059         8.95735         2.97441 
        1.65673         8.95069         2.94801 
        1.66285         8.85555         2.92201 
        1.66898         8.83414         2.89631 
        1.67512         8.79407         2.87088 
        1.68127         8.74226         2.84573 
         1.6874         8.70994         2.82093 
        1.69353         8.64675         2.79645 
        1.69967         8.60923         2.77219 
        1.70581         8.57465         2.74824 
        1.71193         8.51711         2.72466 
        1.71806         8.49991         2.70131 
        1.72421         8.43344         2.67819 
        1.73035         8.41361         2.65536 
        1.73649         8.37183          2.6328 
        1.74262         8.32399         2.61053 
        1.74876         8.29641          2.5885 
        1.75489         8.25309         2.56677 
        1.76101         8.19015          2.5453 
        1.76715         8.17822         2.52404 
        1.77329         8.11673           2.503 
        1.77943         8.07594         2.48219 
        1.78557         8.06384         2.46165 
        1.79171         8.02251         2.44134 
        1.79785         7.96509         2.42126 
        1.80399         7.92873          2.4014 
        1.81012         7.90383          2.3818 
        1.81625         7.85733         2.36242 
        1.82239         7.82717         2.34324 
        1.82853          7.7788         2.32427 
        1.83466          7.7475         2.30553 
        1.84078         7.70349         2.28702 
        1.84692         7.69622         2.26869 
        1.85306          7.6424         2.25053 
         1.8592           7.602          2.2326 
        1.86533         7.57687         2.21488 
        1.87147         7.54434         2.19733 
        1.87761         7.51411         2.17996 
        1.88375         7.46436          2.1628 
        1.88988         7.45525         2.14585 
        1.89601         7.41342         2.12906 
        1.90215         7.37506         2.11245 
        1.90829          7.3405         2.09602 
        1.91442         7.30904         2.07976 
        1.92056         7.28763         2.06369 
         1.9267          7.2442         2.04777 
        1.93284         7.21133         2.03201 
        1.93897         7.17365         2.01645 
        1.94509         7.15357         2.00108 
        1.95123          7.1197         1.98584 
        1.95737         7.08406         1.97074 
        1.96349         7.06178         1.95584 
        1.96964         7.02231         1.94105 
        1.97578         6.99104         1.92641 
        1.98192         6.96655         1.91195 
        1.98805         6.94263         1.89763 
        1.99419         6.90654         1.88347 
        2.00033         6.89407         1.86944 
        2.00647         6.85488         1.85555 
         2.0126         6.82535         1.84184 
        2.01874         6.79788         1.82824 
        2.02488         6.76785         1.81476 
        2.03101         6.73647         1.80145 
        2.03714         6.70233         1.78828 
        2.04328         6.68311         1.77523 
        2.04941         6.64691         1.76233 
        2.05554         6.62833         1.74956 
        2.06167         6.59235          1.7369 
        2.06781         6.57838         1.72436 
        2.07396         6.55778         1.71193 
        2.08009         6.52223         1.69964 
        2.08622         6.48804         1.68749 
        2.09237         6.47595         1.67543 
        2.09851         6.45694         1.66349 
        2.10464          6.4207         1.65169 
        2.11077         6.38003         1.64001 
        2.11691         6.35743         1.62842 
        2.12305         6.34038         1.61695 
        2.12918         6.32556         1.60561 
        2.13531         6.29136         1.59438 
        2.14145         6.27112         1.58323 
         2.1476         6.23787         1.57217 
        2.15372         6.21869         1.56128 
        2.15985         6.21217         1.55048 
        2.16599         6.16795         1.53975 
        2.17213         6.15503         1.52913 
        2.17827         6.13392         1.51861 
         2.1844         6.10379         1.50821 
        2.19054         6.06495         1.49789 
        2.19666         6.05417         1.48769 
         2.2028         6.03206         1.47758 
        2.20893         6.01493         1.46755 
        2.21508         5.98235         1.45761 
        2.22122         5.95671         1.44775 
        2.22736         5.94022         1.43801 
        2.23349         5.92325         1.42836 
        2.23962         5.90359         1.41879 
        2.24577         5.87227          1.4093 
         2.2519         5.86065         1.39992 
        2.25802         5.82861         1.39063 
        2.26417         5.80881          1.3814 
        2.27031         5.78418         1.37225 
        2.27644         5.76213          1.3632 
        2.28257         5.74389         1.35424 
        2.28872         5.72616         1.34535 
        2.29486         5.70573         1.33653 
        2.30099          5.6873         1.32781 
        2.30712         5.66617         1.31917 
        2.31326          5.6298         1.31059 
         2.3194         5.61866         1.30209 
        2.32553         5.60706         1.29368 
        2.33166         5.58659         1.28534 
         2.3378         5.56017         1.27707 
        2.34394          5.5419         1.26887 
        2.35007         5.51466         1.26076 
        2.35619         5.50023         1.25272 
        2.36233         5.48017         1.24474 
        2.36848         5.46178         1.23681 
        2.37462         5.44761         1.22896 
        2.38075         5.42908         1.22119 
        2.38689         5.40921         1.21348 
        2.39303         5.38161         1.20584 
        2.39916         5.36619         1.19827 
        2.40529         5.34827         1.19077 
        2.41143         5.32831         1.18333 
        2.41757         5.32713         1.17595 
         2.4237         5.30049         1.16864 
        2.42983         5.27544          1.1614 
        2.43598         5.26184          1.1542 
        2.44211         5.24108         1.14707 
        2.44823         5.22709         1.14002 
        2.45437         5.20784           1.133 
        2.46052         5.18431         1.12604 
        2.46665         5.17114         1.11916 
        2.47279         5.14773         1.11233 
        2.47892         5.12863         1.10555 
        2.48507          5.1189         1.09883 
         2.4912         5.09428         1.09217 
