# k  (h/Mpc)    Pcb(k)  (Mpc/h)^3    Pcb_linear(k)  (Mpc/h)^3
     0.00783031         15744.5         15974.7 
       0.013688           19824         19647.9 
       0.019231         19830.4         19800.4 
      0.0249154         17811.9         18205.4 
      0.0312784           15480         15669.5 
      0.0375637         13272.1           13287 
      0.0433917           11331         11551.8 
      0.0492413         10224.5         10313.9 
      0.0555754         9096.58          9409.5 
      0.0619321         8732.23          8744.1 
       0.067871          7907.8         8164.28 
      0.0738098          7290.2         7523.46 
      0.0800417         6489.58         6768.07 
      0.0862327          5836.7         5989.35 
      0.0921407         5279.93         5298.29 
      0.0982031         4680.26         4706.12 
       0.104506         4370.37         4245.05 
       0.110769         4040.62         3930.38 
       0.116806         3810.63         3722.64 
       0.122832         3640.01         3559.17 
       0.129052         3385.07         3389.65 
       0.135211         3205.02          3192.2 
       0.141259         3052.42         2965.42 
       0.147318         2856.98         2721.12 
       0.153489         2603.27         2479.88 
       0.159709         2449.78          2267.9 
       0.165845         2349.52         2102.03 
       0.171974         2219.67         1979.44 
       0.178125         2114.99         1889.93 
       0.184229         2027.23         1819.45 
        0.19034         1918.75         1752.23 
       0.196428         1879.34         1677.95 
       0.202534         1806.01         1592.19 
       0.208729         1718.76         1496.48 
       0.214876         1642.76            1400 
       0.220989         1582.77         1310.45 
       0.227147         1513.85         1232.53 
        0.23329         1453.21          1169.3 
       0.239377         1429.21         1119.53 
       0.245482         1340.43         1078.63 
       0.251667         1333.38         1041.53 
       0.257832         1280.91          1004.5 
       0.263955         1238.51         965.177 
       0.270079         1194.81         922.946 
        0.27624         1180.66         878.942 
       0.282372         1131.11         836.033 
        0.28843         1121.05         796.691 
       0.294538         1064.64         761.561 
       0.300721         1058.66         730.965 
        0.30691         1016.43         704.601 
       0.313033         996.605         681.376 
       0.319153         977.648         659.486 
       0.325316         946.251         637.585 
        0.33145         924.187         615.315 
       0.337538         908.271         592.768 
       0.343633         886.823         570.255 
       0.349808         856.172         548.207 
       0.355968         850.389          527.64 
       0.362074         841.242          508.98 
       0.368217         815.199         492.018 
       0.374374         783.398         476.519 
       0.380519         784.061         462.118 
       0.386598         761.997         448.494 
       0.392688         759.472         435.088 
        0.39888         737.016         421.573 
       0.405048         726.661         408.244 
       0.411186         716.432         395.239 
       0.417313           701.5         382.745 
       0.423458         688.869         370.868 
       0.429607         679.809         359.702 
       0.435692         664.776         349.377 
       0.441815         659.111         339.615 
       0.447964         645.488         330.285 
       0.454126         637.877         321.285 
       0.460267         622.982         312.573 
       0.466387         615.901         304.077 
        0.47254         609.704         295.717 
       0.478662         604.983          287.64 
       0.484765         586.018         279.877 
       0.490885         582.066         272.411 
       0.497035         570.417         265.241 
       0.503198         566.069         258.399 
       0.509342         560.837         251.889 
       0.515458         556.738         245.662 
       0.521598         542.615         239.615 
       0.527764         533.282          233.72 
       0.533884         531.243         228.037 
           0.54         524.893          222.52 
       0.546137         521.537         217.144 
       0.552299         513.164         211.914 
       0.558452         510.011         206.871 
       0.564573         503.226          202.04 
       0.570708          496.78          197.38 
       0.576825         483.916         192.901 
       0.582926         484.782          188.58 
       0.589034         480.341         184.384 
       0.595184         476.177          180.28 
       0.601379         468.944         176.266 
       0.607522         462.489         172.402 
       0.613639         461.843         168.668 
       0.619772         451.748         165.037 
       0.625918         449.889         161.507 
       0.632068         443.156          158.08 
       0.638161         441.512         154.786 
         0.6443         433.982         151.566 
       0.650464         431.442         148.428 
       0.656582         428.126         145.405 
       0.662703         426.735         142.468 
       0.668861         419.419         139.596 
       0.675024         415.999         136.801 
       0.681124         412.784         134.111 
       0.687237         409.173         131.487 
       0.693381          403.58          128.92 
       0.699536         398.219         126.418 
       0.705665         396.663         123.993 
       0.711789          394.73         121.634 
       0.717957         391.188         119.321 
        0.72409          388.64         117.083 
       0.730186         383.399         114.916 
       0.736317         380.348         112.793 
       0.742472         378.439         110.717 
       0.748622         374.324         108.696 
        0.75476         369.647         106.731 
       0.760888         366.004         104.817 
       0.767043         366.517         102.943 
       0.773185         362.317         101.119 
       0.779291         357.549         99.3504 
       0.785407         356.227         97.6215 
       0.791564         351.868         95.9231 
       0.797719         349.642         94.2664 
       0.803834         346.113         92.6596 
       0.809972         345.408         91.0848 
       0.816124         344.447         89.5435 
       0.822261         339.835         88.0423 
       0.828378         337.592         86.5803 
       0.834502         334.359         85.1506 
       0.840667         331.708         83.7441 
       0.846816         330.218         82.3737 
       0.852925         327.898         81.0428 
       0.859047         325.827         79.7388 
       0.865192         321.903         78.4595 
       0.871341          319.48         77.2076 
       0.877463         318.771         75.9889 
       0.883569          316.44         74.7999 
       0.889708          313.46         73.6303 
       0.895864          311.64          72.483 
       0.902008         309.241         71.3627 
       0.908149         306.603         70.2669 
       0.914301         303.769         69.1926 
       0.920448         302.148         68.1419 
       0.926574         298.437         67.1168 
       0.932687         298.689         66.1152 
       0.938823         295.433         65.1306 
       0.944975         294.898         64.1639 
       0.951105         292.199         63.2205 
       0.957225         290.281         62.2978 
       0.963368         286.642         61.3905 
       0.969511         285.734         60.5013 
       0.975621         283.479         59.6347 
       0.981748         282.706         58.7829 
       0.987916         280.855         57.9425 
        0.99406          276.73         57.1218 
        1.00019         276.096         56.3187 
        1.00632          274.73         55.5319 
        1.01246         272.373         54.7591 
        1.01859         272.914         54.0024 
        1.02471         268.371          53.261 
        1.03085         267.005          52.531 
        1.03698         265.991         51.8164 
        1.04314         263.326         51.1121 
        1.04929         261.472         50.4227 
        1.05541         262.099         49.7488 
        1.06154         257.746         49.0857 
        1.06769         257.322         48.4337 
        1.07382         255.411         47.7957 
        1.07993         253.779         47.1708 
        1.08607         253.113         46.5545 
        1.09222         250.792         45.9486 
        1.09836         249.094         45.3543 
        1.10449         246.703         44.7713 
        1.11063         244.676         44.1979 
        1.11677         244.393         43.6348 
         1.1229         242.414         43.0826 
        1.12903         241.171         42.5395 
        1.13518           239.4         42.0054 
        1.14131         237.643         41.4807 
        1.14745         237.386         40.9654 
        1.15359         235.254         40.4588 
        1.15973         233.527         39.9606 
        1.16584          231.96         39.4731 
        1.17197         232.033         38.9931 
        1.17811         229.029         38.5196 
        1.18424         227.802         38.0554 
        1.19038          227.22         37.5976 
        1.19652         225.256         37.1474 
        1.20267         224.798         36.7047 
        1.20881         222.815         36.2693 
        1.21495         221.439         35.8417 
        1.22108         220.114         35.4211 
         1.2272         218.672         35.0083 
        1.23334          217.81         34.6011 
        1.23949         216.021         34.1995 
        1.24562         215.195         33.8054 
        1.25174         213.758         33.4181 
        1.25789         212.213         33.0357 
        1.26402         210.375         32.6601 
        1.27014          209.25         32.2912 
        1.27628         208.256          31.927 
        1.28244         208.151         31.5677 
        1.28858         205.775         31.2145 
        1.29471         204.436         30.8675 
        1.30084         203.489         30.5261 
        1.30697         202.032         30.1894 
        1.31312         200.368         29.8573 
        1.31925         199.692         29.5312 
        1.32537         199.028         29.2104 
        1.33151          197.04         28.8932 
        1.33765         195.779          28.581 
        1.34378         195.153         28.2739 
        1.34992         194.113         27.9712 
        1.35606         194.062         27.6723 
         1.3622         192.013         27.3783 
        1.36833         190.239         27.0893 
        1.37445          189.63         26.8046 
        1.38059          188.03         26.5231 
        1.38675         187.442         26.2451 
        1.39288         186.364         25.9721 
        1.39901         185.848         25.7032 
        1.40515         183.933         25.4374 
         1.4113         183.129         25.1756 
        1.41742         181.766         24.9184 
        1.42355         180.925         24.6644 
         1.4297         179.494         24.4132 
        1.43585         178.802         24.1656 
        1.44198         177.893         23.9224 
        1.44809         177.013          23.683 
        1.45423         176.087          23.446 
        1.46036         174.836         23.2127 
        1.46649         173.658         22.9825 
        1.47263          172.62         22.7552 
        1.47877         171.569         22.5311 
        1.48491         170.056         22.3097 
        1.49104         169.902         22.0918 
        1.49718         168.233         21.8766 
        1.50333         167.602         21.6639 
        1.50947         166.722         21.4545 
         1.5156         165.544         21.2482 
        1.52172         164.876         21.0447 
        1.52787         163.326         20.8433 
          1.534         163.035         20.6449 
        1.54013         161.895         20.4492 
        1.54627         160.928         20.2558 
        1.55241         159.895         20.0648 
        1.55855         158.991         19.8766 
        1.56467         157.838         19.6913 
         1.5708         157.128         19.5078 
        1.57695         156.514         19.3265 
        1.58308         155.612         19.1478 
        1.58922         154.737         18.9713 
        1.59535         153.458         18.7971 
         1.6015         153.055         18.6248 
        1.60764         152.064         18.4548 
        1.61376         151.127         18.2874 
        1.61989         150.325          18.122 
        1.62604         149.195         17.9582 
        1.63218          148.79         17.7966 
        1.63831         147.651         17.6373 
        1.64444         147.025         17.4799 
        1.65059         146.115         17.3241 
        1.65673         145.016         17.1704 
        1.66285         144.529         17.0189 
        1.66898         143.418         16.8693 
        1.67512         143.225         16.7211 
        1.68127          141.86         16.5746 
         1.6874          140.96         16.4302 
        1.69353         140.509         16.2876 
        1.69967         139.514         16.1463 
        1.70581         138.827         16.0068 
        1.71193         137.951         15.8695 
        1.71806         137.383         15.7335 
        1.72421         136.553         15.5988 
        1.73035         136.253         15.4659 
        1.73649         135.252         15.3345 
        1.74262         134.281         15.2048 
        1.74876         133.699         15.0764 
        1.75489         132.823         14.9499 
        1.76101         131.846         14.8248 
        1.76715         131.531          14.701 
        1.77329         130.988         14.5784 
        1.77943         129.993         14.4572 
        1.78557         129.489         14.3376 
        1.79171         128.625         14.2193 
        1.79785         127.838         14.1023 
        1.80399         127.101         13.9867 
        1.81012         126.507         13.8725 
        1.81625         125.939         13.7597 
        1.82239         125.316         13.6479 
        1.82853         124.536         13.5375 
        1.83466         123.743         13.4283 
        1.84078         123.248         13.3205 
        1.84692         122.133         13.2137 
        1.85306         122.005          13.108 
         1.8592         121.106         13.0036 
        1.86533         120.282         12.9003 
        1.87147         119.593         12.7981 
        1.87761         118.915          12.697 
        1.88375          118.17          12.597 
        1.88988         117.633         12.4983 
        1.89601         116.998         12.4005 
        1.90215         116.374         12.3037 
        1.90829         115.801          12.208 
        1.91442         115.216         12.1133 
        1.92056         114.435         12.0197 
         1.9267         114.085          11.927 
        1.93284         113.341         11.8352 
        1.93897         112.655         11.7446 
        1.94509         112.195         11.6551 
        1.95123         111.564         11.5663 
        1.95737         111.028         11.4784 
        1.96349           110.4         11.3916 
        1.96964         109.424         11.3054 
        1.97578         108.858         11.2202 
        1.98192         108.619         11.1359 
        1.98805         107.836         11.0526 
        1.99419         107.431           10.97 
        2.00033         106.657         10.8883 
        2.00647         106.329         10.8075 
         2.0126          105.46         10.7276 
        2.01874          104.91         10.6484 
        2.02488         104.581         10.5699 
        2.03101         103.749         10.4923 
        2.03714          103.21         10.4157 
        2.04328         102.736         10.3397 
        2.04941         102.164         10.2645 
        2.05554         101.523         10.1901 
        2.06167         101.213         10.1163 
        2.06781         100.441         10.0433 
        2.07396         100.037         9.97093 
        2.08009         99.5586         9.89936 
        2.08622         98.8798         9.82859 
        2.09237         98.3863         9.75837 
        2.09851         97.9151         9.68882 
        2.10464         97.4512         9.62007 
        2.11077         96.9204         9.55206 
        2.11691         96.5159         9.48457 
        2.12305           95.76         9.41772 
        2.12918         95.1915         9.35168 
        2.13531         94.8296         9.28627 
        2.14145         94.0975         9.22133 
         2.1476         93.5952         9.15694 
        2.15372         93.2999         9.09349 
        2.15985          92.848         9.03057 
        2.16599         92.1702         8.96807 
        2.17213         91.7805         8.90623 
        2.17827         91.3324         8.84499 
         2.1844         90.6727         8.78437 
        2.19054         90.4102         8.72431 
        2.19666         89.9638         8.66489 
         2.2028         89.3788         8.60598 
        2.20893         88.9871         8.54758 
        2.21508         88.4634         8.48967 
        2.22122         87.9836         8.43227 
        2.22736         87.5449         8.37552 
        2.23349         87.1716         8.31931 
        2.23962         86.6925         8.26358 
        2.24577          86.265         8.20832 
         2.2519         85.9123         8.15364 
        2.25802         85.2089         8.09955 
        2.26417         84.8899          8.0458 
        2.27031         84.4371         7.99249 
        2.27644         83.9121         7.93982 
        2.28257         83.4144         7.88763 
        2.28872         83.2296         7.83581 
        2.29486         82.5684         7.78446 
        2.30099         82.1153         7.73369 
        2.30712         81.8456         7.68334 
        2.31326         81.3497         7.63336 
         2.3194          80.886         7.58385 
        2.32553         80.5986         7.53486 
        2.33166         80.1487         7.48633 
         2.3378         79.5936         7.43816 
        2.34394         79.2441          7.3904 
        2.35007         78.8751         7.34313 
        2.35619          78.535         7.29633 
        2.36233         78.0026         7.24983 
        2.36848         77.5869         7.20363 
        2.37462         77.1537         7.15794 
        2.38075         76.8583         7.11269 
        2.38689         76.4045         7.06779 
        2.39303         75.9071         7.02328 
        2.39916          75.657         6.97921 
        2.40529         75.3759         6.93551 
        2.41143         74.7642         6.89216 
        2.41757         74.5463         6.84916 
         2.4237         74.1931          6.8066 
        2.42983            73.7         6.76442 
        2.43598         73.2969         6.72247 
        2.44211         73.1414         6.68096 
        2.44823         72.6444         6.63988 
        2.45437         72.0991         6.59904 
        2.46052         71.8202         6.55851 
        2.46665         71.5946         6.51839 
        2.47279         71.0954         6.47862 
        2.47892         70.7983         6.43916 
        2.48507          70.366         6.39999 
         2.4912         70.0733         6.36122 
