# k  (h/Mpc)    Pcb(k)  (Mpc/h)^3    Pcb_linear(k)  (Mpc/h)^3
     0.00783031         7062.88         7149.64 
       0.013688         8836.93          8796.2 
       0.019231         8880.32         8866.76 
      0.0249154         8045.48         8154.09 
      0.0312784         6980.78         7019.16 
      0.0375637         5964.31         5952.41 
      0.0433917         5126.73          5175.4 
      0.0492413         4609.38         4621.03 
      0.0555754         4140.29         4215.97 
      0.0619321         3935.03         3917.95 
       0.067871         3600.76         3658.24 
      0.0738098         3316.92         3371.16 
      0.0800417         2963.25         3032.73 
      0.0862327            2650         2683.82 
      0.0921407         2373.04         2374.18 
      0.0982031         2099.46         2108.85 
       0.104506         1938.82         1902.25 
       0.110769         1792.02         1761.26 
       0.116806         1683.57         1668.18 
       0.122832         1616.09         1594.93 
       0.129052         1513.93         1518.97 
       0.135211         1429.99         1430.49 
       0.141259         1349.58         1328.88 
       0.147318         1253.36          1219.4 
       0.153489          1139.3          1111.3 
       0.159709         1060.55         1016.31 
       0.165845         1004.52         941.979 
       0.171974         941.811         887.043 
       0.178125         900.309         846.935 
       0.184229         867.842         815.353 
        0.19034         815.789         785.231 
       0.196428         798.447         751.942 
       0.202534         769.296         713.512 
       0.208729         724.981         670.622 
       0.214876         681.247         627.387 
       0.220989         653.806         587.255 
       0.227147         616.103         552.339 
        0.23329         589.496         524.004 
       0.239377         574.709           501.7 
       0.245482         538.393         483.373 
       0.251667         532.686         466.746 
       0.257832         514.512         450.154 
       0.263955         496.093          432.53 
       0.270079         476.936         413.605 
        0.27624         468.067         393.886 
       0.282372         448.077         374.657 
        0.28843          432.94         357.026 
       0.294538         412.639         341.284 
       0.300721         408.256         327.572 
        0.30691         389.415         315.758 
       0.313033         380.835          305.35 
       0.319153         366.907          295.54 
       0.325316         357.458         285.726 
        0.33145         345.876         275.746 
       0.337538         340.723         265.642 
       0.343633         329.037         255.553 
       0.349808         318.185         245.672 
       0.355968         313.314         236.456 
       0.362074         305.468         228.093 
       0.368217         297.127         220.492 
       0.374374         286.623         213.546 
       0.380519         282.409         207.093 
       0.386598         275.207         200.988 
       0.392688          271.85          194.98 
        0.39888         264.529         188.923 
       0.405048         258.363          182.95 
       0.411186         252.746         177.122 
       0.417313         247.651         171.523 
       0.423458         242.613         166.201 
       0.429607         237.097         161.196 
       0.435692         230.199          156.57 
       0.441815         228.459         152.195 
       0.447964         224.223         148.014 
       0.454126         215.157          143.98 
       0.460267         212.694         140.076 
       0.466387         209.955         136.269 
        0.47254         205.401         132.523 
       0.478662         203.929         128.903 
       0.484765         197.762         125.424 
       0.490885          194.88         122.078 
       0.497035         192.178         118.865 
       0.503198         187.229         115.799 
       0.509342         184.749         112.882 
       0.515458         182.174         110.091 
       0.521598         179.339         107.381 
       0.527764          176.65         104.739 
       0.533884          174.03         102.192 
           0.54           171.2         99.7201 
       0.546137         169.954         97.3108 
       0.552299         166.857         94.9671 
       0.558452         164.121         92.7073 
       0.564573         161.336         90.5423 
       0.570708         158.687          88.454 
       0.576825         156.695         86.4466 
       0.582926         154.049         84.5103 
       0.589034         151.912         82.6299 
       0.595184         150.183         80.7908 
       0.601379         148.532         78.9919 
       0.607522         145.212         77.2603 
       0.613639         144.667          75.587 
       0.619772         141.503         73.9596 
       0.625918         140.047         72.3776 
       0.632068         138.475         70.8421 
       0.638161         137.218         69.3659 
         0.6443         135.307         67.9227 
       0.650464         133.839         66.5167 
       0.656582         132.125          65.162 
       0.662703         130.134         63.8454 
       0.668861         128.416         62.5584 
       0.675024         126.979          61.306 
       0.681124         125.974         60.1004 
       0.687237         123.708         58.9245 
       0.693381         122.147         57.7743 
       0.699536         121.109         56.6528 
       0.705665         121.318          55.566 
       0.711789         118.244          54.509 
       0.717957         117.783         53.4726 
        0.72409         116.067         52.4694 
       0.730186          114.18         51.4985 
       0.736317         113.782         50.5473 
       0.742472         112.796         49.6169 
       0.748622          111.71         48.7112 
        0.75476         110.612         47.8303 
       0.760888         109.053         46.9728 
       0.767043         108.257          46.133 
       0.773185          107.06         45.3157 
       0.779291          105.86         44.5229 
       0.785407         105.132         43.7481 
       0.791564         104.049          42.987 
       0.797719         102.495         42.2446 
       0.803834         102.059         41.5245 
       0.809972         100.548         40.8188 
       0.816124         100.177         40.1281 
       0.822261         99.2227         39.4553 
       0.828378         98.3196         38.8001 
       0.834502         97.6207         38.1594 
       0.840667         96.5019         37.5291 
       0.846816         95.4254          36.915 
       0.852925         94.6894         36.3186 
       0.859047         93.5107         35.7342 
       0.865192         93.0885         35.1609 
       0.871341         92.3278         34.5998 
       0.877463         91.1364         34.0537 
       0.883569         90.5494         33.5208 
       0.889708         89.9646         32.9967 
       0.895864         89.1996         32.4826 
       0.902008         88.4354         31.9805 
       0.908149          87.897         31.4895 
       0.914301         86.9767          31.008 
       0.920448         86.3913         30.5371 
       0.926574         85.6826         30.0778 
       0.932687         85.3721         29.6289 
       0.938823         84.0295         29.1877 
       0.944975         83.5113         28.7544 
       0.951105          82.889         28.3317 
       0.957225         81.8883         27.9181 
       0.963368          81.627         27.5115 
       0.969511         81.2111         27.1131 
       0.975621         80.7475         26.7247 
       0.981748         79.9355          26.343 
       0.987916         79.2743         25.9664 
        0.99406         78.7837         25.5986 
        1.00019         78.0033         25.2387 
        1.00632         77.6388         24.8861 
        1.01246          76.958         24.5398 
        1.01859         75.9485         24.2006 
        1.02471         76.1724         23.8684 
        1.03085         75.3188         23.5413 
        1.03698         74.7933          23.221 
        1.04314         74.0697         22.9054 
        1.04929         73.6713         22.5964 
        1.05541         73.0083         22.2944 
        1.06154         72.8467         21.9973 
        1.06769         72.2911         21.7051 
        1.07382         71.9773         21.4192 
        1.07993         71.5194         21.1391 
        1.08607         70.8706          20.863 
        1.09222         70.5148         20.5914 
        1.09836         70.0001         20.3251 
        1.10449         69.5565         20.0638 
        1.11063         69.0035         19.8069 
        1.11677         68.6062         19.5545 
         1.1229         68.0765         19.3071 
        1.12903         67.2614         19.0637 
        1.13518         67.5276         18.8243 
        1.14131         67.0376         18.5892 
        1.14745         66.2041         18.3583 
        1.15359         66.0546         18.1312 
        1.15973         65.5117          17.908 
        1.16584         65.0973         17.6895 
        1.17197         64.7161         17.4744 
        1.17811         64.4086         17.2622 
        1.18424         63.7934         17.0542 
        1.19038         63.4795          16.849 
        1.19652         63.2569         16.6473 
        1.20267          62.717         16.4489 
        1.20881         62.4061         16.2538 
        1.21495         61.8826         16.0621 
        1.22108         61.5732         15.8736 
         1.2272         61.0194         15.6886 
        1.23334          60.795         15.5062 
        1.23949         60.6249         15.3262 
        1.24562          60.175         15.1496 
        1.25174         59.8927          14.976 
        1.25789         59.5834         14.8047 
        1.26402         59.1196         14.6363 
        1.27014         58.5762          14.471 
        1.27628         58.4367         14.3078 
        1.28244         57.9633         14.1468 
        1.28858         57.7379         13.9885 
        1.29471          57.531          13.833 
        1.30084         57.1612           13.68 
        1.30697         56.7484         13.5291 
        1.31312         56.3712         13.3802 
        1.31925         56.2606         13.2341 
        1.32537         55.9502         13.0904 
        1.33151          55.418         12.9482 
        1.33765         55.2776         12.8083 
        1.34378         54.9226         12.6707 
        1.34992         54.5344          12.535 
        1.35606          54.246         12.4011 
         1.3622         53.8892         12.2693 
        1.36833         53.6887         12.1398 
        1.37445         53.5018         12.0122 
        1.38059         53.1029         11.8861 
        1.38675         52.7836         11.7615 
        1.39288         52.5469         11.6392 
        1.39901         52.2951         11.5186 
        1.40515         52.0085         11.3996 
         1.4113         51.8113         11.2822 
        1.41742         51.4901          11.167 
        1.42355         51.1552         11.0531 
         1.4297         50.9092         10.9405 
        1.43585          50.679         10.8296 
        1.44198         50.4076         10.7206 
        1.44809         50.1898         10.6133 
        1.45423          49.967         10.5071 
        1.46036         49.7108         10.4025 
        1.46649         49.3985         10.2994 
        1.47263         49.1115         10.1975 
        1.47877         48.9763         10.0971 
        1.48491         48.8216          9.9979 
        1.49104          48.408         9.90023 
        1.49718         47.9852         9.80379 
        1.50333         47.9159         9.70849 
        1.50947         47.7022         9.61466 
         1.5156         47.3969          9.5222 
        1.52172         47.2155         9.43096 
        1.52787         47.1287         9.34074 
          1.534         46.7904         9.25181 
        1.54013         46.5166         9.16414 
        1.54627         46.3638         9.07744 
        1.55241         46.0456         8.99186 
        1.55855         45.7991          8.9075 
        1.56467         45.4283         8.82446 
         1.5708         45.4725         8.74225 
        1.57695         45.1597         8.66097 
        1.58308         44.9779         8.58091 
        1.58922         44.9265         8.50181 
        1.59535         44.6354         8.42374 
         1.6015         44.2654         8.34655 
        1.60764         44.1182         8.27037 
        1.61376         43.9171         8.19535 
        1.61989         43.5734          8.1212 
        1.62604         43.5185         8.04781 
        1.63218         43.3523         7.97537 
        1.63831         43.1017           7.904 
        1.64444         42.8937         7.83347 
        1.65059         42.5708         7.76364 
        1.65673         42.3961         7.69474 
        1.66285         42.2249         7.62688 
        1.66898         41.9882         7.55981 
        1.67512         41.8096         7.49342 
        1.68127         41.5564         7.42776 
         1.6874         41.4739         7.36304 
        1.69353         41.1954         7.29914 
        1.69967         41.0193         7.23584 
        1.70581         40.9557         7.17332 
        1.71193         40.7028         7.11177 
        1.71806         40.3967         7.05082 
        1.72421         40.2447         6.99046 
        1.73035         40.0348         6.93088 
        1.73649          39.795         6.87201 
        1.74262         39.7094         6.81387 
        1.74876         39.6431         6.75636 
        1.75489         39.3474         6.69964 
        1.76101         39.1706         6.64359 
        1.76715          38.995         6.58811 
        1.77329         38.8036         6.53319 
        1.77943         38.6705         6.47888 
        1.78557         38.4753         6.42527 
        1.79171         38.2523         6.37226 
        1.79785         38.0769         6.31983 
        1.80399         37.9691         6.26801 
        1.81012         37.8137         6.21685 
        1.81625         37.5158         6.16627 
        1.82239          37.433         6.11619 
        1.82853          37.145         6.06669 
        1.83466         37.0784         6.01778 
        1.84078         36.7832         5.96947 
        1.84692         36.6939         5.92161 
        1.85306         36.5119         5.87422 
         1.8592         36.3467         5.82742 
        1.86533         36.1678         5.78117 
        1.87147         36.0579         5.73536 
        1.87761         35.9491         5.69002 
        1.88375         35.7378         5.64524 
        1.88988         35.6658         5.60098 
        1.89601         35.4156         5.55717 
        1.90215         35.3029          5.5138 
        1.90829         35.2194         5.47091 
        1.91442         34.9677         5.42847 
        1.92056         34.8828         5.38653 
         1.9267         34.6062         5.34498 
        1.93284         34.4414         5.30385 
        1.93897         34.3869         5.26323 
        1.94509         34.1724         5.22312 
        1.95123         34.0644         5.18333 
        1.95737          33.857         5.14392 
        1.96349         33.7342         5.10503 
        1.96964         33.5637         5.06643 
        1.97578         33.4746         5.02821 
        1.98192          33.269         4.99047 
        1.98805         33.1669          4.9531 
        1.99419         32.9479         4.91612 
        2.00033         32.8118          4.8795 
        2.00647         32.6977         4.84327 
         2.0126          32.549         4.80746 
        2.01874         32.4475         4.77196 
        2.02488         32.3604          4.7368 
        2.03101          32.114         4.70205 
        2.03714         31.9904         4.66768 
        2.04328         31.8298         4.63362 
        2.04941         31.7369         4.59993 
        2.05554         31.5571         4.56659 
        2.06167          31.458         4.53355 
        2.06781         31.3059         4.50082 
        2.07396         31.1708         4.46838 
        2.08009         31.0761         4.43631 
        2.08622         30.9047         4.40459 
        2.09237         30.7622         4.37312 
        2.09851         30.6161         4.34196 
        2.10464         30.5647         4.31114 
        2.11077         30.3474         4.28067 
        2.11691         30.2621         4.25042 
        2.12305         30.1309         4.22047 
        2.12918         30.0923         4.19087 
        2.13531         29.9021         4.16156 
        2.14145         29.8347         4.13246 
         2.1476         29.6154          4.1036 
        2.15372         29.4812         4.07516 
        2.15985         29.3752         4.04697 
        2.16599         29.3221         4.01896 
        2.17213         29.2185         3.99124 
        2.17827         28.9538          3.9638 
         2.1844         28.8615         3.93664 
        2.19054         28.7342         3.90972 
        2.19666         28.6421         3.88309 
         2.2028         28.5389         3.85669 
        2.20893         28.4452         3.83052 
        2.21508          28.312         3.80457 
        2.22122          28.118         3.77884 
        2.22736         28.0789         3.75341 
        2.23349         27.9439         3.72822 
        2.23962         27.8099         3.70325 
        2.24577         27.6661         3.67848 
         2.2519         27.6008         3.65398 
        2.25802         27.4563         3.62974 
        2.26417          27.381         3.60565 
        2.27031         27.2863         3.58176 
        2.27644         27.1162         3.55816 
        2.28257          27.018         3.53477 
        2.28872         26.8883         3.51154 
        2.29486         26.8366         3.48854 
        2.30099         26.7058         3.46578 
        2.30712         26.6239         3.44322 
        2.31326         26.5381         3.42082 
         2.3194         26.3929         3.39863 
        2.32553         26.2506         3.37668 
        2.33166         26.1302         3.35493 
         2.3378         26.0287         3.33334 
        2.34394         25.9163         3.31194 
        2.35007         25.8084         3.29076 
        2.35619          25.737         3.26978 
        2.36233         25.6727         3.24894 
        2.36848          25.472         3.22824 
        2.37462         25.3963         3.20776 
        2.38075         25.3095         3.18748 
        2.38689         25.2398         3.16736 
        2.39303          25.082         3.14742 
        2.39916         24.9597         3.12767 
        2.40529         24.8616         3.10809 
        2.41143          24.782         3.08866 
        2.41757         24.6872         3.06939 
         2.4237         24.5648         3.05032 
        2.42983         24.4756         3.03141 
        2.43598         24.3909         3.01261 
        2.44211         24.2744         2.99401 
        2.44823         24.1403          2.9756 
        2.45437         24.0847          2.9573 
        2.46052          23.989         2.93914 
        2.46665         23.9149         2.92116 
        2.47279         23.7875         2.90334 
        2.47892         23.6877         2.88565 
        2.48507         23.6017          2.8681 
         2.4912          23.544         2.85072 
