# k  (h/Mpc)    P(k)  (Mpc/h)^3    P_linear(k)  (Mpc/h)^3
     0.00783031         15658.9         15892.7 
       0.013688         19690.9         19521.3 
       0.019231         19685.5         19659.7 
      0.0249154         17675.5         18068.8 
      0.0312784         15357.4         15547.5 
      0.0375637         13164.6           13181 
      0.0433917           11238         11458.3 
      0.0492413         10139.8         10229.4 
      0.0555754         9020.59         9331.72 
      0.0619321          8658.8          8671.3 
       0.067871         7841.03         8095.96 
      0.0738098         7228.41         7460.23 
      0.0800417          6434.4            6711 
      0.0862327         5786.93         5938.69 
      0.0921407          5234.8         5253.37 
      0.0982031         4640.19         4666.14 
       0.104506         4332.88         4208.92 
       0.110769         4005.92         3896.88 
       0.116806         3777.87         3690.87 
       0.122832         3608.68         3528.76 
       0.129052         3355.91         3360.66 
       0.135211         3177.39         3164.87 
       0.141259         3026.09         2940.02 
       0.147318         2832.32         2697.79 
       0.153489         2580.78         2458.61 
       0.159709         2428.61         2248.44 
       0.165845         2329.21         2083.98 
       0.171974         2200.47         1962.43 
       0.178125         2096.69         1873.69 
       0.184229         2009.68         1803.81 
        0.19034         1902.14         1737.16 
       0.196428         1863.06         1663.51 
       0.202534         1790.37         1578.49 
       0.208729         1703.87          1483.6 
       0.214876         1628.52         1387.95 
       0.220989         1569.05         1299.16 
       0.227147         1500.72         1221.91 
        0.23329         1440.62         1159.23 
       0.239377         1416.82         1109.88 
       0.245482         1328.81         1069.34 
       0.251667         1321.82         1032.55 
       0.257832          1269.8         995.844 
       0.263955         1227.77         956.854 
       0.270079         1184.44         914.988 
        0.27624         1170.42         871.361 
       0.282372         1121.29         828.822 
        0.28843         1111.32         789.818 
       0.294538          1055.4         754.993 
       0.300721         1049.47         724.659 
        0.30691         1007.61          698.52 
       0.313033         987.956         675.495 
       0.319153         969.163         653.796 
       0.325316         938.039         632.083 
        0.33145         916.166         610.003 
       0.337538         900.388         587.651 
       0.343633         879.125         565.332 
       0.349808         848.741         543.472 
       0.355968         843.007         523.085 
       0.362074          833.94         504.586 
       0.368217         808.123          487.77 
       0.374374         776.598         472.403 
       0.380519         777.255         458.128 
       0.386598         755.382         444.621 
       0.392688         752.879          431.33 
        0.39888         730.618         417.932 
       0.405048         720.352         404.717 
       0.411186         710.213         391.826 
       0.417313          695.41         379.438 
       0.423458         682.889         367.665 
       0.429607         673.907         356.594 
       0.435692         659.005          346.36 
       0.441815         653.389         336.681 
       0.447964         639.884         327.432 
       0.454126         632.339         318.509 
       0.460267         617.573         309.873 
       0.466387         610.553          301.45 
        0.47254         604.411         293.162 
       0.478662         599.731         285.155 
       0.484765          580.93         277.459 
       0.490885         577.012         270.057 
       0.497035         565.465         262.948 
       0.503198         561.155         256.166 
       0.509342         555.968         249.713 
       0.515458         551.904         243.539 
       0.521598         537.904         237.545 
       0.527764         528.652           231.7 
       0.533884         526.631         226.066 
           0.54         520.336         220.597 
       0.546137         517.009         215.267 
       0.552299         508.708         210.083 
       0.558452         505.583         205.084 
       0.564573         498.857         200.294 
       0.570708         492.467         195.675 
       0.576825         479.714         191.234 
       0.582926         480.573          186.95 
       0.589034          476.17         182.791 
       0.595184         472.043         178.722 
       0.601379         464.873         174.743 
       0.607522         458.473         170.912 
       0.613639         457.833          167.21 
       0.619772         447.826          163.61 
       0.625918         445.983         160.111 
       0.632068         439.309         156.714 
       0.638161         437.679         153.448 
         0.6443         430.214         150.256 
       0.650464         427.696         147.145 
       0.656582         424.409         144.148 
       0.662703          423.03         141.236 
       0.668861         415.778         138.389 
       0.675024         412.387         135.618 
       0.681124           409.2         132.951 
       0.687237          405.62          130.35 
       0.693381         400.076         127.806 
       0.699536         394.762         125.325 
       0.705665         393.219         122.921 
       0.711789         391.303         120.582 
       0.717957         387.791          118.29 
        0.72409         385.266          116.07 
       0.730186          380.07         113.923 
       0.736317         377.046         111.818 
       0.742472         375.153          109.76 
       0.748622         371.074         107.757 
        0.75476         366.438         105.808 
       0.760888         362.826         103.911 
       0.767043         363.334         102.053 
       0.773185         359.171         100.245 
       0.779291         354.445         98.4914 
       0.785407         353.134         96.7775 
       0.791564         348.813         95.0938 
       0.797719         346.606         93.4514 
       0.803834         343.108         91.8585 
       0.809972         342.409         90.2973 
       0.816124         341.457         88.7694 
       0.822261         336.884         87.2811 
       0.828378         334.661         85.8318 
       0.834502         331.456         84.4144 
       0.840667         328.828         83.0201 
       0.846816         327.351         81.6615 
       0.852925         325.051         80.3421 
       0.859047         322.998         79.0494 
       0.865192         319.108         77.7811 
       0.871341         316.706         76.5401 
       0.877463         316.004         75.3319 
       0.883569         313.693         74.1531 
       0.889708         310.739         72.9937 
       0.895864         308.934         71.8563 
       0.902008         306.556         70.7457 
       0.908149         303.941         69.6594 
       0.914301         301.132         68.5943 
       0.920448         299.525         67.5527 
       0.926574         295.845         66.5365 
       0.932687         296.096         65.5435 
       0.938823         292.868         64.5674 
       0.944975         292.337         63.6091 
       0.951105         289.662         62.6738 
       0.957225         287.761         61.7591 
       0.963368         284.153         60.8596 
       0.969511         283.253         59.9782 
       0.975621         281.018          59.119 
       0.981748         280.252         58.2746 
       0.987916         278.417         57.4415 
        0.99406         274.327         56.6279 
        1.00019         273.699         55.8318 
        1.00632         272.344         55.0518 
        1.01246         270.008         54.2856 
        1.01859         270.544         53.5354 
        1.02471         266.041         52.8004 
        1.03085         264.687         52.0768 
        1.03698         263.682         51.3683 
        1.04314          261.04         50.6701 
        1.04929         259.202         49.9867 
        1.05541         259.823         49.3186 
        1.06154         255.508         48.6612 
        1.06769         255.087         48.0149 
        1.07382         253.194         47.3824 
        1.07993         251.575         46.7629 
        1.08607         250.915         46.1519 
        1.09222         248.614         45.5513 
        1.09836         246.931         44.9621 
        1.10449         244.561         44.3841 
        1.11063         242.551         43.8157 
        1.11677         242.271         43.2575 
         1.1229          240.31           42.71 
        1.12903         239.078         42.1716 
        1.13518         237.321         41.6421 
        1.14131          235.58          41.122 
        1.14745         235.325         40.6112 
        1.15359         233.212          40.109 
        1.15973         231.499         39.6151 
        1.16584         229.946         39.1318 
        1.17197         230.018         38.6559 
        1.17811         227.041         38.1865 
        1.18424         225.824         37.7263 
        1.19038         225.247         37.2724 
        1.19652           223.3         36.8262 
        1.20267         222.846         36.3873 
        1.20881         220.881         35.9557 
        1.21495         219.517         35.5318 
        1.22108         218.203         35.1148 
         1.2272         216.773         34.7055 
        1.23334         215.919         34.3019 
        1.23949         214.145         33.9037 
        1.24562         213.327          33.513 
        1.25174         211.902         33.1291 
        1.25789         210.371         32.7501 
        1.26402         208.548         32.3777 
        1.27014         207.433          32.012 
        1.27628         206.448         31.6509 
        1.28244         206.344         31.2947 
        1.28858         203.988         30.9446 
        1.29471         202.661         30.6005 
        1.30084         201.722         30.2621 
        1.30697         200.278         29.9283 
        1.31312         198.629         29.5991 
        1.31925         197.958         29.2758 
        1.32537           197.3         28.9578 
        1.33151         195.329         28.6434 
        1.33765         194.079         28.3338 
        1.34378         193.459         28.0294 
        1.34992         192.428         27.7293 
        1.35606         192.377          27.433 
         1.3622         190.346         27.1415 
        1.36833         188.588          26.855 
        1.37445         187.983         26.5728 
        1.38059         186.398         26.2938 
        1.38675         185.814         26.0181 
        1.39288         184.746         25.7475 
        1.39901         184.234         25.4809 
        1.40515         182.336         25.2175 
         1.4113         181.539         24.9579 
        1.41742         180.188          24.703 
        1.42355         179.354         24.4511 
         1.4297         177.936         24.2021 
        1.43585          177.25         23.9566 
        1.44198         176.348         23.7155 
        1.44809         175.476         23.4782 
        1.45423         174.558         23.2432 
        1.46036         173.318         23.0119 
        1.46649          172.15         22.7837 
        1.47263         171.121         22.5584 
        1.47877         170.079         22.3363 
        1.48491          168.58         22.1168 
        1.49104         168.427         21.9007 
        1.49718         166.773         21.6874 
        1.50333         166.147         21.4766 
        1.50947         165.275          21.269 
         1.5156         164.107         21.0645 
        1.52172         163.444         20.8627 
        1.52787         161.908         20.6631 
          1.534          161.62         20.4664 
        1.54013         160.489         20.2724 
        1.54627         159.531         20.0806 
        1.55241         158.506         19.8913 
        1.55855         157.611         19.7047 
        1.56467         156.467          19.521 
         1.5708         155.764         19.3391 
        1.57695         155.155         19.1593 
        1.58308         154.261         18.9822 
        1.58922         153.393         18.8072 
        1.59535         152.126         18.6345 
         1.6015         151.727         18.4638 
        1.60764         150.744         18.2952 
        1.61376         149.815         18.1293 
        1.61989          149.02         17.9653 
        1.62604         147.899         17.8029 
        1.63218         147.499         17.6427 
        1.63831         146.369         17.4848 
        1.64444         145.749         17.3288 
        1.65059         144.846         17.1743 
        1.65673         143.756         17.0219 
        1.66285         143.274         16.8718 
        1.66898         142.172         16.7234 
        1.67512         141.981         16.5765 
        1.68127         140.628         16.4313 
         1.6874         139.737         16.2881 
        1.69353         139.289         16.1467 
        1.69967         138.303         16.0067 
        1.70581         137.622         15.8684 
        1.71193         136.753         15.7323 
        1.71806         136.191         15.5974 
        1.72421         135.368         15.4639 
        1.73035          135.07         15.3321 
        1.73649         134.078         15.2019 
        1.74262         133.115         15.0733 
        1.74876         132.539         14.9461 
        1.75489          131.67         14.8206 
        1.76101         130.701         14.6966 
        1.76715         130.389         14.5738 
        1.77329          129.85         14.4524 
        1.77943         128.864         14.3322 
        1.78557         128.365         14.2136 
        1.79171         127.508         14.0964 
        1.79785         126.728         13.9804 
        1.80399         125.998         13.8657 
        1.81012         125.409         13.7526 
        1.81625         124.846         13.6407 
        1.82239         124.228         13.5299 
        1.82853         123.455         13.4204 
        1.83466         122.668         13.3122 
        1.84078         122.177         13.2053 
        1.84692         121.073         13.0995 
        1.85306         120.945         12.9946 
         1.8592         120.055         12.8911 
        1.86533         119.238         12.7888 
        1.87147         118.554         12.6874 
        1.87761         117.882         12.5872 
        1.88375         117.144         12.4881 
        1.88988         116.612         12.3902 
        1.89601         115.982         12.2933 
        1.90215         115.364         12.1973 
        1.90829         114.795         12.1024 
        1.91442         114.216         12.0086 
        1.92056         113.442         11.9158 
         1.9267         113.095         11.8239 
        1.93284         112.357         11.7329 
        1.93897         111.677          11.643 
        1.94509          111.22         11.5543 
        1.95123         110.595         11.4663 
        1.95737         110.064         11.3791 
        1.96349         109.441         11.2931 
        1.96964         108.474         11.2077 
        1.97578         107.913         11.1231 
        1.98192         107.676         11.0396 
        1.98805           106.9          10.957 
        1.99419         106.498         10.8752 
        2.00033         105.731         10.7942 
        2.00647         105.406          10.714 
         2.0126         104.544         10.6348 
        2.01874         103.999         10.5563 
        2.02488         103.673         10.4785 
        2.03101         102.848         10.4016 
        2.03714         102.314         10.3256 
        2.04328         101.844         10.2502 
        2.04941         101.277         10.1757 
        2.05554         100.642          10.102 
        2.06167         100.334         10.0289 
        2.06781          99.569         9.95647 
        2.07396         99.1683          9.8847 
        2.08009         98.6942         9.81375 
        2.08622         98.0213         9.74359 
        2.09237         97.5321         9.67397 
        2.09851         97.0649         9.60503 
        2.10464         96.6051         9.53687 
        2.11077         96.0789         9.46946 
        2.11691          95.678         9.40255 
        2.12305         94.9285         9.33628 
        2.12918         94.3651         9.27081 
        2.13531         94.0062         9.20596 
        2.14145         93.2806         9.14159 
         2.1476         92.7826         9.07775 
        2.15372         92.4899         9.01484 
        2.15985         92.0418         8.95247 
        2.16599           91.37         8.89051 
        2.17213         90.9836         8.82921 
        2.17827         90.5394         8.76849 
         2.1844         89.8854          8.7084 
        2.19054         89.6252         8.64886 
        2.19666         89.1827         8.58996 
         2.2028         88.6028         8.53155 
        2.20893         88.2145         8.47366 
        2.21508         87.6953         8.41625 
        2.22122         87.2197         8.35934 
        2.22736         86.7849         8.30308 
        2.23349         86.4148         8.24736 
        2.23962         85.9398         8.19212 
        2.24577          85.516         8.13733 
         2.2519         85.1664         8.08313 
        2.25802         84.4691         8.02951 
        2.26417         84.1529         7.97622 
        2.27031          83.704         7.92337 
        2.27644         83.1836         7.87115 
        2.28257         82.6901         7.81941 
        2.28872          82.507         7.76804 
        2.29486         81.8515         7.71714 
        2.30099         81.4023          7.6668 
        2.30712          81.135         7.61689 
        2.31326         80.6434         7.56734 
         2.3194         80.1837         7.51826 
        2.32553         79.8988          7.4697 
        2.33166         79.4528         7.42159 
         2.3378         78.9025         7.37384 
        2.34394         78.5561         7.32649 
        2.35007         78.1903         7.27963 
        2.35619         77.8531         7.23323 
        2.36233         77.3254         7.18713 
        2.36848         76.9133         7.14133 
        2.37462         76.4839         7.09604 
        2.38075          76.191         7.05117 
        2.38689         75.7411         7.00666 
        2.39303         75.2481         6.96254 
        2.39916         75.0002         6.91885 
        2.40529         74.7214         6.87553 
        2.41143         74.1151         6.83255 
        2.41757         73.8991         6.78993 
         2.4237         73.5489         6.74774 
        2.42983         73.0601         6.70592 
        2.43598         72.6605         6.66434 
        2.44211         72.5064         6.62318 
        2.44823         72.0136         6.58246 
        2.45437         71.4731         6.54197 
        2.46052         71.1967         6.50179 
        2.46665          70.973         6.46202 
        2.47279         70.4781         6.42259 
        2.47892         70.1837         6.38347 
        2.48507          69.755         6.34464 
         2.4912         69.4649         6.30621 
