# k  (h/Mpc)    P(k)  (Mpc/h)^3    P_linear(k)  (Mpc/h)^3
     0.00783031         199.699         207.312 
       0.013688         247.068         255.114 
       0.019231         249.951         257.145 
      0.0249154         229.464         236.458 
      0.0312784         198.249         203.536 
      0.0375637         168.495         172.596 
      0.0433917          146.32          150.06 
      0.0492413          130.79         133.982 
      0.0555754         119.017         122.234 
      0.0619321         110.977         113.591 
       0.067871         103.235          106.06 
      0.0738098         95.1139         97.7358 
      0.0800417         85.4911         87.9232 
      0.0862327         75.8228         77.8072 
      0.0921407         67.1467           68.83 
      0.0982031         59.6026         61.1372 
       0.104506         53.9551         55.1476 
       0.110769         49.9206         51.0598 
       0.116806         47.1252         48.3611 
       0.122832         45.1337         46.2374 
       0.129052         42.8665         44.0353 
       0.135211         40.3534         41.4702 
       0.141259         37.5751         38.5241 
       0.147318         34.5677         35.3504 
       0.153489         31.4688         32.2165 
       0.159709          28.798         29.4627 
       0.165845         26.8036         27.3078 
       0.171974          25.129         25.7152 
       0.178125         24.0126         24.5525 
       0.184229         23.1432         23.6368 
        0.19034         22.1908         22.7636 
       0.196428         21.3069         21.7985 
       0.202534         20.3012         20.6844 
       0.208729         19.0381         19.4411 
       0.214876         17.7822         18.1877 
       0.220989          16.731         17.0242 
       0.227147         15.6707         16.0121 
        0.23329         14.8713         15.1907 
       0.239377         14.2543         14.5441 
       0.245482         13.6999         14.0127 
       0.251667          13.285         13.5308 
       0.257832         12.7899         13.0497 
       0.263955         12.3046         12.5388 
       0.270079         11.7741         11.9902 
        0.27624         11.2564         11.4185 
       0.282372          10.714         10.8611 
        0.28843         10.1852           10.35 
       0.294538         9.74407         9.89364 
       0.300721         9.38982         9.49615 
        0.30691         9.01526         9.15362 
       0.313033         8.72661          8.8519 
       0.319153          8.3993         8.56755 
       0.325316         8.19138         8.28302 
        0.33145         7.89857         7.99368 
       0.337538         7.60884         7.70078 
       0.343633         7.30933         7.40832 
       0.349808         7.04843         7.12186 
       0.355968         6.78959          6.8547 
       0.362074         6.54511         6.61228 
       0.368217         6.33363         6.39193 
       0.374374         6.11697         6.19056 
       0.380519         5.95144         6.00349 
       0.386598         5.78678         5.82649 
       0.392688         5.62687         5.65233 
        0.39888         5.44628         5.47676 
       0.405048         5.28048         5.30359 
       0.411186         5.11945         5.13465 
       0.417313         4.94918         4.97233 
       0.423458         4.80881         4.81805 
       0.429607         4.65475         4.67296 
       0.435692         4.52295         4.53886 
       0.441815         4.40157         4.41202 
       0.447964         4.29872         4.29082 
       0.454126         4.16578         4.17389 
       0.460267          4.0565         4.06072 
       0.466387         3.94034         3.95034 
        0.47254          3.8412         3.84174 
       0.478662         3.74424         3.73681 
       0.484765         3.63639         3.63596 
       0.490885         3.54403         3.53896 
       0.497035         3.47202          3.4458 
       0.503198         3.37424         3.35693 
       0.509342         3.29501         3.27236 
       0.515458         3.21003         3.19146 
       0.521598         3.13465          3.1129 
       0.527764         3.05108         3.03631 
       0.533884         2.99197         2.96248 
           0.54         2.91718         2.89082 
       0.546137         2.85208         2.82097 
       0.552299         2.78481         2.75303 
       0.558452         2.71194         2.68752 
       0.564573         2.65713         2.62475 
       0.570708         2.59714         2.56422 
       0.576825         2.53458         2.50602 
       0.582926         2.48647         2.44989 
       0.589034         2.41878         2.39538 
       0.595184          2.3708         2.34207 
       0.601379         2.31907         2.28992 
       0.607522         2.27648         2.23972 
       0.613639         2.23557         2.19121 
       0.619772         2.17719         2.14403 
       0.625918          2.1372         2.09817 
       0.632068         2.09822         2.05366 
       0.638161         2.05027         2.01087 
         0.6443         2.00815         1.96903 
       0.650464         1.96301         1.92827 
       0.656582         1.93041           1.889 
       0.662703          1.8928         1.85083 
       0.668861          1.8614         1.81352 
       0.675024         1.82041         1.77722 
       0.681124         1.78121         1.74227 
       0.687237         1.75367         1.70818 
       0.693381          1.7213         1.67484 
       0.699536         1.67896         1.64232 
       0.705665         1.65049         1.61082 
       0.711789         1.62355         1.58018 
       0.717957          1.5905         1.55013 
        0.72409         1.56298         1.52105 
       0.730186         1.53347          1.4929 
       0.736317         1.51405         1.46533 
       0.742472         1.48538         1.43836 
       0.748622         1.45634          1.4121 
        0.75476         1.42794         1.38657 
       0.760888         1.40277         1.36171 
       0.767043         1.38666         1.33736 
       0.773185         1.35729         1.31367 
       0.779291         1.33559         1.29069 
       0.785407         1.31335         1.26823 
       0.791564         1.29251         1.24616 
       0.797719         1.27309         1.22464 
       0.803834         1.25284         1.20377 
       0.809972         1.23106         1.18331 
       0.816124          1.2092         1.16328 
       0.822261         1.18768         1.14378 
       0.828378          1.1715         1.12479 
       0.834502         1.15577         1.10621 
       0.840667         1.13182         1.08794 
       0.846816         1.11473         1.07014 
       0.852925         1.10219         1.05285 
       0.859047         1.08467         1.03591 
       0.865192         1.06578         1.01929 
       0.871341            1.05         1.00302 
       0.877463         1.03737        0.987193 
       0.883569         1.01862        0.971745 
       0.889708         1.00319        0.956552 
       0.895864        0.988552        0.941646 
       0.902008        0.972252        0.927092 
       0.908149         0.95882        0.912857 
       0.914301        0.940538          0.8989 
       0.920448        0.928991         0.88525 
       0.926574        0.915034        0.871933 
       0.932687        0.901683        0.858921 
       0.938823        0.892867        0.846129 
       0.944975        0.878918        0.833571 
       0.951105        0.867363        0.821314 
       0.957225        0.857285        0.809327 
       0.963368         0.84419         0.79754 
       0.969511        0.830906        0.785989 
       0.975621        0.818019         0.77473 
       0.981748        0.810509        0.763665 
       0.987916         0.79821        0.752747 
        0.99406        0.786197        0.742085 
        1.00019        0.778299        0.731652 
        1.00632        0.764659        0.721431 
        1.01246        0.754833        0.711391 
        1.01859        0.746394         0.70156 
        1.02471        0.735553        0.691928 
        1.03085         0.72865        0.682445 
        1.03698        0.717047        0.673161 
        1.04314        0.708713        0.664011 
        1.04929        0.698218        0.655055 
        1.05541        0.691011          0.6463 
        1.06154        0.680915        0.637685 
        1.06769        0.671735        0.629215 
        1.07382        0.664229        0.620928 
        1.07993        0.654213        0.612809 
        1.08607         0.64936        0.604802 
        1.09222        0.639263        0.596931 
        1.09836        0.634062        0.589211 
        1.10449        0.625782        0.581636 
        1.11063        0.616256        0.574187 
        1.11677        0.607753        0.566872 
         1.1229        0.601836        0.559698 
        1.12903        0.593746        0.552642 
        1.13518        0.588165        0.545703 
        1.14131         0.58016        0.538888 
        1.14745        0.570429        0.532193 
        1.15359        0.566235        0.525612 
        1.15973        0.557764         0.51914 
        1.16584        0.554264        0.512807 
        1.17197        0.546997         0.50657 
        1.17811        0.541321        0.500419 
        1.18424        0.536391        0.494389 
        1.19038        0.528598         0.48844 
        1.19652        0.521269        0.482593 
        1.20267        0.517695        0.476841 
        1.20881        0.510539        0.471185 
        1.21495        0.506315         0.46563 
        1.22108        0.500256        0.460166 
         1.2272        0.495396        0.454803 
        1.23334        0.489158        0.449513 
        1.23949        0.483847        0.444295 
        1.24562        0.478769        0.439175 
        1.25174        0.473933        0.434144 
        1.25789        0.469308        0.429177 
        1.26402        0.462559        0.424297 
        1.27014        0.458156        0.419505 
        1.27628        0.454578        0.414773 
        1.28244        0.447563        0.410105 
        1.28858        0.443775        0.405516 
        1.29471        0.440298        0.401008 
        1.30084         0.43465        0.396573 
        1.30697         0.43006        0.392199 
        1.31312        0.424075        0.387884 
        1.31925        0.420647        0.383649 
        1.32537        0.417123        0.379481 
        1.33151        0.413507         0.37536 
        1.33765        0.408944        0.371303 
        1.34378        0.403555        0.367315 
        1.34992        0.400447        0.363382 
        1.35606        0.396085        0.359499 
         1.3622        0.392187        0.355679 
        1.36833        0.388138        0.351925 
        1.37445        0.383213        0.348226 
        1.38059         0.37985         0.34457 
        1.38675        0.378253        0.340957 
        1.39288        0.373363        0.337411 
        1.39901        0.369951        0.333917 
        1.40515        0.366649        0.330465 
         1.4113        0.362244        0.327064 
        1.41742        0.358874        0.323723 
        1.42355        0.356688        0.320423 
         1.4297        0.351985        0.317159 
        1.43585        0.349053        0.313942 
        1.44198        0.346856        0.310782 
        1.44809        0.342561        0.307672 
        1.45423        0.339452        0.304594 
        1.46036        0.336241        0.301562 
        1.46649        0.333716        0.298572 
        1.47263        0.330151         0.29562 
        1.47877        0.326431        0.292709 
        1.48491        0.323997        0.289832 
        1.49104        0.320268        0.287001 
        1.49718        0.317733        0.284205 
        1.50333        0.315533        0.281443 
        1.50947        0.312362        0.278722 
         1.5156        0.309151        0.276042 
        1.52172        0.306756        0.273397 
        1.52787        0.303787        0.270782 
          1.534        0.301082        0.268204 
        1.54013        0.298085        0.265662 
        1.54627        0.296102        0.263149 
        1.55241        0.292931        0.260668 
        1.55855        0.289995        0.258223 
        1.56467        0.288964        0.255815 
         1.5708        0.285517        0.253432 
        1.57695        0.283201        0.251076 
        1.58308        0.280599        0.248755 
        1.58922        0.278447        0.246462 
        1.59535        0.275824        0.244199 
         1.6015        0.273382        0.241961 
        1.60764        0.271406        0.239752 
        1.61376        0.268277        0.237578 
        1.61989        0.266543        0.235428 
        1.62604        0.264418        0.233301 
        1.63218        0.262442        0.231201 
        1.63831        0.260278        0.229132 
        1.64444        0.257979        0.227087 
        1.65059        0.255845        0.225063 
        1.65673        0.253729        0.223066 
        1.66285        0.251979        0.221098 
        1.66898        0.249955        0.219154 
        1.67512        0.247317        0.217229 
        1.68127        0.245164        0.215326 
         1.6874         0.24395         0.21345 
        1.69353        0.241341        0.211597 
        1.69967        0.239992        0.209762 
        1.70581        0.237488         0.20795 
        1.71193        0.235797        0.206166 
        1.71806        0.233617        0.204399 
        1.72421        0.232348        0.202649 
        1.73035        0.230014        0.200922 
        1.73649        0.228648        0.199215 
        1.74262        0.226691         0.19753 
        1.74876        0.224774        0.195863 
        1.75489        0.223297        0.194218 
        1.76101        0.221162        0.192594 
        1.76715        0.219529        0.190985 
        1.77329        0.217605        0.189393 
        1.77943        0.216037        0.187819 
        1.78557        0.214814        0.186265 
        1.79171        0.213142        0.184728 
        1.79785         0.21134        0.183208 
        1.80399        0.209731        0.181706 
        1.81012        0.208292        0.180222 
        1.81625         0.20664        0.178756 
        1.82239        0.205251        0.177304 
        1.82853        0.203241        0.175869 
        1.83466        0.202003        0.174452 
        1.84078        0.200398        0.173051 
        1.84692        0.198886        0.171664 
        1.85306        0.197781         0.17029 
         1.8592         0.19597        0.168933 
        1.86533        0.194917        0.167592 
        1.87147        0.193357        0.166264 
        1.87761        0.192151         0.16495 
        1.88375        0.190331        0.163652 
        1.88988        0.189122        0.162369 
        1.89601        0.187529        0.161099 
        1.90215        0.186487        0.159842 
        1.90829        0.184829        0.158598 
        1.91442        0.183991        0.157368 
        1.92056        0.182343        0.156152 
         1.9267         0.18092        0.154948 
        1.93284         0.17969        0.153755 
        1.93897        0.178376        0.152578 
        1.94509        0.177505        0.151415 
        1.95123        0.176005        0.150262 
        1.95737        0.175063        0.149119 
        1.96349        0.173613        0.147992 
        1.96964        0.172291        0.146873 
        1.97578        0.171084        0.145765 
        1.98192        0.170147        0.144671 
        1.98805        0.169208        0.143587 
        1.99419        0.167589        0.142515 
        2.00033        0.166415        0.141454 
        2.00647        0.165808        0.140403 
         2.0126        0.164216        0.139365 
        2.01874        0.163389        0.138336 
        2.02488        0.162196        0.137317 
        2.03101        0.161098         0.13631 
        2.03714        0.159911        0.135313 
        2.04328        0.159091        0.134326 
        2.04941        0.157779        0.133349 
        2.05554        0.156938        0.132383 
        2.06167        0.156073        0.131425 
        2.06781        0.154659        0.130476 
        2.07396        0.153676        0.129536 
        2.08009        0.152689        0.128606 
        2.08622         0.15188        0.127686 
        2.09237        0.150947        0.126774 
        2.09851        0.149989        0.125871 
        2.10464        0.148994        0.124978 
        2.11077        0.147843        0.124094 
        2.11691        0.146991        0.123217 
        2.12305        0.146041        0.122349 
        2.12918        0.145244        0.121491 
        2.13531        0.144084        0.120641 
        2.14145        0.143084        0.119797 
         2.1476        0.142362        0.118961 
        2.15372        0.141702        0.118137 
        2.15985        0.140519        0.117319 
        2.16599        0.139556        0.116507 
        2.17213        0.138873        0.115704 
        2.17827        0.137851        0.114908 
         2.1844        0.137223        0.114121 
        2.19054        0.136266        0.113341 
        2.19666        0.135105        0.112569 
         2.2028        0.134615        0.111803 
        2.20893        0.133968        0.111045 
        2.21508         0.13275        0.110292 
        2.22122        0.131943        0.109546 
        2.22736        0.131461        0.108809 
        2.23349        0.130448        0.108079 
        2.23962        0.129825        0.107355 
        2.24577        0.128854        0.106637 
         2.2519        0.128281        0.105927 
        2.25802        0.127313        0.105224 
        2.26417        0.126695        0.104526 
        2.27031        0.125848        0.103833 
        2.27644        0.125126        0.103149 
        2.28257        0.124384        0.102471 
        2.28872        0.123656        0.101798 
        2.29486        0.123076        0.101131 
        2.30099        0.122153        0.100471 
        2.30712        0.121533        0.099817 
        2.31326        0.120542       0.0991676 
         2.3194        0.120449       0.0985245 
        2.32553        0.119585       0.0978881 
        2.33166        0.118982       0.0972576 
         2.3378        0.118174       0.0966318 
        2.34394        0.117385       0.0960114 
        2.35007        0.116745       0.0953972 
        2.35619        0.115924       0.0947892 
        2.36233        0.115333       0.0941851 
        2.36848        0.114872        0.093585 
        2.37462        0.113951       0.0929914 
        2.38075        0.113613       0.0924035 
        2.38689        0.112875       0.0918201 
        2.39303        0.112457        0.091242 
        2.39916        0.111459       0.0906694 
        2.40529         0.11102       0.0901017 
        2.41143        0.110346       0.0895385 
        2.41757        0.109707       0.0889799 
         2.4237        0.109297       0.0884271 
        2.42983        0.108506        0.087879 
        2.43598        0.108171       0.0873341 
        2.44211        0.107375       0.0867947 
        2.44823        0.107039       0.0862611 
        2.45437          0.1061       0.0857306 
        2.46052        0.105725        0.085204 
        2.46665        0.105034       0.0846828 
        2.47279        0.104434       0.0841662 
        2.47892        0.103771       0.0836535 
        2.48507        0.103198       0.0831446 
         2.4912        0.102804       0.0826409 
