# k  (h/Mpc)    Pcb(k)  (Mpc/h)^3    Pcb_linear(k)  (Mpc/h)^3
     0.00783031         5085.95         5145.04 
       0.013688         6350.76         6330.62 
       0.019231         6390.45         6382.05 
      0.0249154         5804.42         5869.53 
      0.0312784         5033.07         5052.82 
      0.0375637         4295.85         4285.03 
      0.0433917         3699.97         3725.76 
      0.0492413         3322.94         3326.72 
      0.0555754         2992.81         3035.16 
      0.0619321         2835.05         2820.63 
       0.067871         2602.43         2633.68 
      0.0738098         2397.03         2427.02 
      0.0800417         2143.88         2183.38 
      0.0862327         1914.11          1932.2 
      0.0921407         1709.41         1709.28 
      0.0982031         1512.42         1518.26 
       0.104506          1391.5         1369.53 
       0.110769         1286.28         1268.02 
       0.116806         1208.12         1201.01 
       0.122832         1160.55         1148.27 
       0.129052         1090.01         1093.59 
       0.135211         1028.59         1029.89 
       0.141259         968.145          956.73 
       0.147318         897.442         877.916 
       0.153489         815.573         800.087 
       0.159709         756.173         731.699 
       0.165845         713.888         678.184 
       0.171974         668.006         638.633 
       0.178125         639.123         609.758 
       0.184229         616.514          587.02 
        0.19034         580.592         565.334 
       0.196428         566.794         541.367 
       0.202534         545.751         513.699 
       0.208729         513.121         482.821 
       0.214876         480.595         451.693 
       0.220989         460.099           422.8 
       0.227147         431.834         397.662 
        0.23329           412.6         377.262 
       0.239377         401.002         361.204 
       0.245482         376.933         348.009 
       0.251667         371.886         336.039 
       0.257832         359.485         324.093 
       0.263955         346.107         311.405 
       0.270079         332.528         297.779 
        0.27624         324.877         283.582 
       0.282372          310.91         269.738 
        0.28843         298.538         257.045 
       0.294538         285.202         245.711 
       0.300721         280.847         235.839 
        0.30691         267.961         227.333 
       0.313033          261.36          219.84 
       0.319153         250.677         212.777 
       0.325316          245.17         205.711 
        0.33145           236.6         198.526 
       0.337538          232.46         191.252 
       0.343633         224.261         183.988 
       0.349808         216.981         176.875 
       0.355968         212.535         170.239 
       0.362074         206.379         164.219 
       0.368217          200.63         158.746 
       0.374374         194.365         153.745 
       0.380519         190.533         149.099 
       0.386598         185.528         144.703 
       0.392688         182.562         140.378 
        0.39888         177.694         136.017 
       0.405048         173.448         131.717 
       0.411186         169.487         127.521 
       0.417313         165.385          123.49 
       0.423458         161.757         119.658 
       0.429607         157.776         116.055 
       0.435692          152.74         112.724 
       0.441815         151.512         109.574 
       0.447964         148.865         106.564 
       0.454126         142.359          103.66 
       0.460267         140.718          100.85 
       0.466387          138.37         98.1083 
        0.47254          135.65         95.4113 
       0.478662         134.071         92.8053 
       0.484765         130.198         90.3006 
       0.490885         127.947         87.8915 
       0.497035         126.285         85.5782 
       0.503198         122.784         83.3708 
       0.509342         120.455         81.2705 
       0.515458         118.679         79.2614 
       0.521598         117.006         77.3102 
       0.527764         115.152         75.4082 
       0.533884         113.256         73.5746 
           0.54         111.134         71.7948 
       0.546137          110.07         70.0602 
       0.552299         108.317         68.3727 
       0.558452         105.801         66.7458 
       0.564573         103.903         65.1871 
       0.570708         102.555         63.6836 
       0.576825         101.013         62.2383 
       0.582926          99.046         60.8442 
       0.589034          97.243         59.4904 
       0.595184         96.0847         58.1663 
       0.601379         94.9183         56.8712 
       0.607522          92.616         55.6245 
       0.613639         92.3885         54.4198 
       0.619772         90.2483         53.2481 
       0.625918         89.3873         52.1092 
       0.632068         88.2945         51.0036 
       0.638161         87.1497         49.9409 
         0.6443         85.9263         48.9018 
       0.650464         84.7964         47.8896 
       0.656582         83.7485         46.9142 
       0.662703         82.1437         45.9663 
       0.668861         81.2366         45.0397 
       0.675024         80.2468          44.138 
       0.681124         79.1633           43.27 
       0.687237         77.7768         42.4234 
       0.693381         77.0227         41.5954 
       0.699536         75.9045         40.7879 
       0.705665         76.2324         40.0055 
       0.711789         74.1276         39.2445 
       0.717957         73.6016         38.4983 
        0.72409         72.5736          37.776 
       0.730186         71.3712          37.077 
       0.736317         71.1805         36.3921 
       0.742472          70.206         35.7224 
       0.748622          69.544         35.0703 
        0.75476          68.744         34.4361 
       0.760888         67.7464         33.8187 
       0.767043         67.0696         33.2141 
       0.773185         66.2475         32.6256 
       0.779291         65.8386         32.0548 
       0.785407         65.2147          31.497 
       0.791564         64.3075         30.9491 
       0.797719          63.323         30.4145 
       0.803834         63.1172         29.8961 
       0.809972         62.0311          29.388 
       0.816124         61.4347         28.8907 
       0.822261         60.9899         28.4064 
       0.828378         60.5173         27.9347 
       0.834502         59.8186         27.4734 
       0.840667         59.2878         27.0196 
       0.846816         58.4906         26.5774 
       0.852925         57.9974          26.148 
       0.859047         57.2303         25.7273 
       0.865192         56.9136         25.3145 
       0.871341         56.6243         24.9106 
       0.877463         55.5376         24.5174 
       0.883569          55.186         24.1338 
       0.889708         54.8772         23.7564 
       0.895864         54.3501         23.3862 
       0.902008          53.856         23.0248 
       0.908149         53.4309         22.6712 
       0.914301         53.0327         22.3246 
       0.920448         52.4347         21.9856 
       0.926574         51.9908         21.6549 
       0.932687         51.6015         21.3317 
       0.938823           50.82          21.014 
       0.944975         50.6903         20.7021 
       0.951105         50.1807         20.3977 
       0.957225         49.5527            20.1 
       0.963368         49.5033         19.8073 
       0.969511         49.0784         19.5204 
       0.975621         48.6695         19.2408 
       0.981748         48.0968          18.966 
       0.987916          47.827         18.6948 
        0.99406         47.5164           18.43 
        1.00019         46.9199         18.1709 
        1.00632         46.7107         17.9171 
        1.01246         46.3383         17.6677 
        1.01859         45.7264         17.4236 
        1.02471         45.7944         17.1844 
        1.03085         45.3018         16.9488 
        1.03698         44.8031         16.7183 
        1.04314         44.4099          16.491 
        1.04929         44.1889         16.2686 
        1.05541         43.7046         16.0512 
        1.06154         43.6412         15.8372 
        1.06769         43.2255         15.6269 
        1.07382         42.9455          15.421 
        1.07993         42.7721         15.2194 
        1.08607         42.2553         15.0206 
        1.09222         42.1124         14.8251 
        1.09836         41.7462         14.6333 
        1.10449         41.4399         14.4452 
        1.11063         40.9473         14.2602 
        1.11677         40.7625         14.0785 
         1.1229         40.6153         13.9004 
        1.12903         40.0363         13.7251 
        1.13518         40.0285         13.5528 
        1.14131         39.8638         13.3835 
        1.14745          39.348         13.2173 
        1.15359         39.2963         13.0538 
        1.15973         38.8261         12.8931 
        1.16584         38.5505         12.7358 
        1.17197         38.4833         12.5809 
        1.17811         38.1191         12.4281 
        1.18424         37.7563         12.2784 
        1.19038         37.7124         12.1306 
        1.19652         37.5002         11.9854 
        1.20267           37.22         11.8426 
        1.20881         36.9198         11.7021 
        1.21495         36.6607         11.5641 
        1.22108         36.4469         11.4284 
         1.2272         36.0517         11.2952 
        1.23334         35.9569         11.1639 
        1.23949         35.8203         11.0343 
        1.24562         35.5631         10.9071 
        1.25174         35.3985         10.7822 
        1.25789         35.1352         10.6588 
        1.26402          34.914         10.5376 
        1.27014          34.584         10.4186 
        1.27628         34.4544         10.3011 
        1.28244         34.2319         10.1852 
        1.28858         34.1106         10.0712 
        1.29471         33.9332         9.95922 
        1.30084         33.7198         9.84908 
        1.30697         33.4487         9.74044 
        1.31312         33.1586         9.63329 
        1.31925         33.0823         9.52809 
        1.32537         32.9217         9.42458 
        1.33151         32.6719         9.32224 
        1.33765          32.622         9.22149 
        1.34378         32.4123         9.12243 
        1.34992         32.0077         9.02477 
        1.35606         31.8896         8.92832 
         1.3622         31.7163         8.83346 
        1.36833         31.5424         8.74021 
        1.37445         31.5381         8.64836 
        1.38059         31.3055         8.55755 
        1.38675         31.0007         8.46783 
        1.39288         30.9437         8.37976 
        1.39901         30.6646         8.29299 
        1.40515         30.5535         8.20726 
         1.4113         30.4315         8.12277 
        1.41742         30.1149         8.03981 
        1.42355         30.0767         7.95785 
         1.4297         29.8738         7.87679 
        1.43585         29.8265          7.7969 
        1.44198         29.5396         7.71842 
        1.44809         29.4108         7.64118 
        1.45423         29.3051         7.56472 
        1.46036         29.2027         7.48944 
        1.46649         28.9736         7.41517 
        1.47263         28.8202         7.34185 
        1.47877         28.7207         7.26955 
        1.48491         28.5576         7.19812 
        1.49104         28.4537          7.1278 
        1.49718         28.1809         7.05837 
        1.50333          28.141         6.98976 
        1.50947         28.0077          6.9222 
         1.5156         27.8083         6.85563 
        1.52172         27.6162         6.78995 
        1.52787         27.6353         6.72499 
          1.534         27.3843         6.66097 
        1.54013         27.1958         6.59784 
        1.54627         27.1555         6.53542 
        1.55241         26.9706         6.47381 
        1.55855         26.8215         6.41307 
        1.56467         26.6905         6.35329 
         1.5708         26.6299          6.2941 
        1.57695         26.3506         6.23558 
        1.58308         26.4136         6.17794 
        1.58922         26.2149         6.12099 
        1.59535         26.0448         6.06478 
         1.6015         25.9277         6.00921 
        1.60764         25.8739         5.95436 
        1.61376         25.6767         5.90035 
        1.61989         25.4858         5.84696 
        1.62604         25.4774         5.79412 
        1.63218         25.2905         5.74197 
        1.63831         25.2316         5.69059 
        1.64444         25.0771         5.63981 
        1.65059         24.9217         5.58954 
        1.65673         24.8224         5.53993 
        1.66285         24.7164         5.49107 
        1.66898         24.6081         5.44278 
        1.67512         24.5337         5.39498 
        1.68127         24.3403         5.34771 
         1.6874         24.2504         5.30112 
        1.69353         24.1782         5.25511 
        1.69967          24.001         5.20953 
        1.70581         23.9167         5.16452 
        1.71193         23.8054         5.12021 
        1.71806         23.6899         5.07633 
        1.72421         23.5666         5.03287 
        1.73035         23.4776         4.98998 
        1.73649         23.3811         4.94759 
        1.74262         23.2812         4.90573 
        1.74876         23.2038         4.86433 
        1.75489          23.054          4.8235 
        1.76101         22.9703         4.78314 
        1.76715         22.8742          4.7432 
        1.77329         22.8012         4.70366 
        1.77943         22.6556         4.66456 
        1.78557         22.5754         4.62596 
        1.79171         22.4908         4.58779 
        1.79785         22.3443         4.55005 
        1.80399         22.2438         4.51274 
        1.81012         22.2195          4.4759 
        1.81625         22.0923         4.43949 
        1.82239         22.0617         4.40343 
        1.82853         21.8528         4.36779 
        1.83466         21.7452         4.33258 
        1.84078         21.6148          4.2978 
        1.84692         21.6182         4.26334 
        1.85306         21.4822         4.22922 
         1.8592         21.3894         4.19553 
        1.86533         21.2981         4.16223 
        1.87147         21.2035         4.12924 
        1.87761         21.1843         4.09661 
        1.88375         21.0534         4.06436 
        1.88988         20.9909          4.0325 
        1.89601         20.8328         4.00096 
        1.90215         20.7762         3.96973 
        1.90829         20.7253         3.93885 
        1.91442         20.6063          3.9083 
        1.92056         20.5318          3.8781 
         1.9267         20.4371         3.84819 
        1.93284         20.3284         3.81857 
        1.93897         20.2743         3.78933 
        1.94509         20.1881         3.76045 
        1.95123         20.0634          3.7318 
        1.95737         20.0106         3.70344 
        1.96349         19.9218         3.67543 
        1.96964         19.8241         3.64764 
        1.97578         19.7826         3.62013 
        1.98192         19.6385         3.59295 
        1.98805         19.6095         3.56605 
        1.99419         19.5074         3.53943 
        2.00033         19.3922         3.51306 
        2.00647          19.332         3.48697 
         2.0126         19.2287          3.4612 
        2.01874          19.167         3.43564 
        2.02488         19.1408         3.41032 
        2.03101         19.0567          3.3853 
        2.03714         18.9611         3.36056 
        2.04328         18.8583         3.33603 
        2.04941         18.7814         3.31178 
        2.05554          18.757         3.28778 
        2.06167         18.6739         3.26399 
        2.06781         18.5989         3.24043 
        2.07396         18.5211         3.21707 
        2.08009          18.457         3.19398 
        2.08622         18.3527         3.17114 
        2.09237         18.2883         3.14849 
        2.09851         18.2124         3.12605 
        2.10464         18.1523         3.10386 
        2.11077         18.0314         3.08192 
        2.11691         18.0214         3.06015 
        2.12305         17.9134         3.03858 
        2.12918         17.8504         3.01727 
        2.13531          17.791         2.99617 
        2.14145         17.7033         2.97522 
         2.1476         17.6377         2.95444 
        2.15372         17.5811         2.93397 
        2.15985         17.4713         2.91367 
        2.16599         17.4383          2.8935 
        2.17213         17.3783         2.87355 
        2.17827         17.3015         2.85379 
         2.1844         17.2183         2.83423 
        2.19054         17.1526         2.81485 
        2.19666         17.1187         2.79568 
         2.2028         17.0666         2.77667 
        2.20893         16.9469         2.75783 
        2.21508         16.8937         2.73915 
        2.22122         16.8022         2.72063 
        2.22736         16.7646         2.70232 
        2.23349         16.6871         2.68418 
        2.23962         16.6177          2.6662 
        2.24577         16.5367         2.64837 
         2.2519         16.5218         2.63073 
        2.25802         16.4695         2.61328 
        2.26417          16.404         2.59594 
        2.27031           16.32         2.57874 
        2.27644         16.2676         2.56174 
        2.28257         16.1911          2.5449 
        2.28872         16.1198         2.52818 
        2.29486         16.0761         2.51162 
        2.30099         16.0071         2.49523 
        2.30712         15.9876         2.47899 
        2.31326         15.9037         2.46286 
         2.3194         15.8402         2.44689 
        2.32553         15.7728         2.43108 
        2.33166         15.6811         2.41543 
         2.3378         15.6383         2.39989 
        2.34394         15.5875         2.38448 
        2.35007         15.5143         2.36922 
        2.35619          15.438         2.35412 
        2.36233         15.4066         2.33912 
        2.36848         15.3626         2.32422 
        2.37462         15.3398         2.30947 
        2.38075         15.2459         2.29487 
        2.38689         15.2141         2.28038 
        2.39303         15.1303         2.26603 
        2.39916         15.0817          2.2518 
        2.40529         15.0196         2.23771 
        2.41143         14.9711         2.22372 
        2.41757         14.9224         2.20985 
         2.4237         14.8529         2.19612 
        2.42983          14.807          2.1825 
        2.43598         14.7519         2.16897 
        2.44211         14.6837         2.15558 
        2.44823         14.6247         2.14232 
        2.45437         14.6033         2.12915 
        2.46052          14.544         2.11607 
        2.46665         14.4815         2.10313 
        2.47279         14.4138         2.09029 
        2.47892         14.3885         2.07756 
        2.48507         14.3447         2.06492 
         2.4912         14.2814         2.05241 
