# k  (h/Mpc)    P(k)  (Mpc/h)^3    P_linear(k)  (Mpc/h)^3
     0.00783031         10785.2         10950.8 
       0.013688         13526.4         13453.5 
       0.019231         13558.7         13550.3 
      0.0249154         12231.1         12454.6 
      0.0312784         10620.3         10717.2 
      0.0375637         9088.13         9086.26 
      0.0433917         7785.98         7898.87 
      0.0492413         7012.27         7051.88 
      0.0555754            6270         6433.11 
      0.0619321         5988.96          5977.9 
       0.067871         5452.46         5581.31 
      0.0738098         5024.03         5143.08 
      0.0800417         4480.28         4626.59 
      0.0862327         4017.52         4094.18 
      0.0921407         3614.64         3621.73 
      0.0982031         3199.63          3216.9 
       0.104506         2971.49          2901.7 
       0.110769         2746.46         2686.58 
       0.116806         2583.77         2544.56 
       0.122832         2475.18          2432.8 
       0.129052         2309.83         2316.91 
       0.135211         2184.87         2181.94 
       0.141259         2070.91         2026.92 
       0.147318         1929.89         1859.93 
       0.153489         1755.83         1695.03 
       0.159709         1644.12         1550.13 
       0.165845         1566.09         1436.75 
       0.171974         1473.84         1352.96 
       0.178125          1406.4         1291.78 
       0.184229         1353.01          1243.6 
        0.19034         1272.72         1197.65 
       0.196428         1247.96         1146.87 
       0.202534         1201.87         1088.26 
       0.208729         1137.68         1022.84 
       0.214876          1076.8         956.893 
       0.220989         1036.29          895.68 
       0.227147         983.566         842.426 
        0.23329         942.727         799.209 
       0.239377         923.159          765.19 
       0.245482         863.566         737.235 
       0.251667         857.277         711.876 
       0.257832         825.587         686.567 
       0.263955         797.838         659.686 
       0.270079          767.98         630.823 
        0.27624         757.571         600.745 
       0.282372          725.21         571.417 
        0.28843         709.449         544.527 
       0.294538         673.813         520.517 
       0.300721         669.916         499.605 
        0.30691          639.92         481.583 
       0.313033         627.462          465.71 
       0.319153         609.842         450.749 
       0.325316         591.639         435.779 
        0.33145         575.029         420.557 
       0.337538         566.863         405.147 
       0.343633         549.294          389.76 
       0.349808         530.413         374.688 
       0.355968         525.868         360.633 
       0.362074          516.57         347.879 
       0.368217         502.061         336.285 
       0.374374          481.32         325.691 
       0.380519         478.548         315.849 
       0.386598         466.356         306.537 
       0.392688         463.592         297.374 
        0.39888         450.086         288.137 
       0.405048         440.945         279.026 
       0.411186         433.154         270.139 
       0.417313         424.872         261.598 
       0.423458         417.022         253.481 
       0.429607         409.252         245.848 
       0.435692         399.318         238.793 
       0.441815         396.093          232.12 
       0.447964         387.887         225.744 
       0.454126         377.291         219.592 
       0.460267         371.527         213.637 
       0.466387         367.249          207.83 
        0.47254         359.828         202.117 
       0.478662         358.797         196.596 
       0.484765         347.022          191.29 
       0.490885         343.444         186.187 
       0.497035         337.483         181.286 
       0.503198         331.741          176.61 
       0.509342         329.092         172.161 
       0.515458         325.221         167.905 
       0.521598         318.276         163.772 
       0.527764         313.013         159.742 
       0.533884         310.487         155.858 
           0.54         306.033         152.088 
       0.546137         304.689         148.413 
       0.552299         298.299         144.839 
       0.558452         296.256         141.392 
       0.564573         291.703          138.09 
       0.570708         286.318         134.905 
       0.576825         281.635         131.843 
       0.582926         279.143          128.89 
       0.589034          276.44         126.023 
       0.595184         273.691         123.217 
       0.601379          270.45         120.474 
       0.607522         265.864         117.833 
       0.613639         264.469         115.281 
       0.619772         258.439         112.799 
       0.625918         257.281         110.386 
       0.632068         253.434         108.044 
       0.638161         252.339         105.793 
         0.6443         248.115         103.592 
       0.650464         245.754         101.447 
       0.656582         244.025         99.3812 
       0.662703          242.39         97.3733 
       0.668861         238.032         95.4103 
       0.675024         235.337         93.5002 
       0.681124          234.29         91.6615 
       0.687237         231.286         89.8681 
       0.693381         227.814         88.1139 
       0.699536         226.043         86.4035 
       0.705665         224.532          84.746 
       0.711789         221.886         83.1339 
       0.717957         220.786         81.5532 
        0.72409           218.2         80.0232 
       0.730186         215.619         78.5424 
       0.736317         213.387         77.0916 
       0.742472         212.333         75.6728 
       0.748622         210.453         74.2914 
        0.75476           208.7         72.9479 
       0.760888         205.921           71.64 
       0.767043         205.726         70.3593 
       0.773185         203.309         69.1127 
       0.779291         199.621         67.9036 
       0.785407         199.161         66.7219 
       0.791564         197.248         65.5612 
       0.797719         194.733         64.4288 
       0.803834         193.725         63.3306 
       0.809972         192.336         62.2543 
       0.816124         192.128         61.2009 
       0.822261         189.477         60.1748 
       0.828378         187.807         59.1756 
       0.834502         187.509         58.1984 
       0.840667         184.633         57.2371 
       0.846816         183.223         56.3004 
       0.852925           182.5         55.3908 
       0.859047         180.604         54.4996 
       0.865192         178.993         53.6252 
       0.871341          177.42         52.7695 
       0.877463         176.155         51.9366 
       0.883569         175.411         51.1239 
       0.889708         173.716         50.3246 
       0.895864         171.657         49.5404 
       0.902008         170.975         48.7747 
       0.908149         170.319         48.0258 
       0.914301          168.26         47.2915 
       0.920448         167.018         46.5733 
       0.926574         166.125         45.8727 
       0.932687         165.813         45.1881 
       0.938823         163.651         44.5152 
       0.944975         162.171         43.8545 
       0.951105         161.561         43.2097 
       0.957225         159.916          42.579 
       0.963368         158.138         41.9589 
       0.969511         157.737         41.3512 
       0.975621         156.678         40.7588 
       0.981748         156.269         40.1767 
       0.987916         154.468         39.6023 
        0.99406         153.276         39.0414 
        1.00019         153.101         38.4925 
        1.00632         151.591         37.9547 
        1.01246         150.682         37.4265 
        1.01859         149.789         36.9093 
        1.02471         148.447         36.4026 
        1.03085         146.956         35.9037 
        1.03698         146.413         35.4152 
        1.04314         145.102         34.9339 
        1.04929         144.195         34.4627 
        1.05541         143.683         34.0021 
        1.06154         142.632         33.5488 
        1.06769         142.516         33.1032 
        1.07382         141.225         32.6672 
        1.07993         140.017         32.2401 
        1.08607         139.174         31.8188 
        1.09222         138.663         31.4048 
        1.09836          137.43         30.9986 
        1.10449         136.247         30.6001 
        1.11063         135.296         30.2082 
        1.11677         135.028         29.8233 
         1.1229         133.669         29.4459 
        1.12903         133.006         29.0747 
        1.13518           132.8         28.7096 
        1.14131          131.42         28.3511 
        1.14745         130.893         27.9989 
        1.15359         129.968         27.6526 
        1.15973         129.538         27.3121 
        1.16584         128.134         26.9789 
        1.17197         127.618         26.6508 
        1.17811         126.929         26.3272 
        1.18424         126.289         26.0099 
        1.19038         125.859          25.697 
        1.19652         124.896         25.3894 
        1.20267         124.124         25.0868 
        1.20881         123.155         24.7892 
        1.21495         122.591         24.4969 
        1.22108         121.996         24.2095 
         1.2272         120.863         23.9273 
        1.23334         120.403          23.649 
        1.23949         119.383         23.3745 
        1.24562         118.936         23.1051 
        1.25174         117.854         22.8404 
        1.25789          117.44         22.5791 
        1.26402         116.734         22.3224 
        1.27014         116.055         22.0703 
        1.27628         115.503         21.8213 
        1.28244          114.94         21.5758 
        1.28858         114.531         21.3343 
        1.29471         113.273         21.0971 
        1.30084         112.952         20.8638 
        1.30697         112.175         20.6337 
        1.31312         111.823         20.4067 
        1.31925         110.838         20.1839 
        1.32537         110.409         19.9646 
        1.33151         109.365         19.7478 
        1.33765         109.057         19.5344 
        1.34378           108.4         19.3245 
        1.34992         108.157         19.1176 
        1.35606         107.421         18.9133 
         1.3622         106.541         18.7124 
        1.36833         106.122         18.5148 
        1.37445          105.43         18.3203 
        1.38059         104.951         18.1279 
        1.38675         104.187         17.9378 
        1.39288         103.838         17.7513 
        1.39901         103.425         17.5675 
        1.40515         102.649         17.3859 
         1.4113         101.903         17.2069 
        1.41742         101.717         17.0311 
        1.42355         100.925         16.8575 
         1.4297         100.459         16.6858 
        1.43585         99.6558         16.5166 
        1.44198         99.3942         16.3503 
        1.44809         98.7106         16.1867 
        1.45423         98.1362         16.0247 
        1.46036         97.9212         15.8653 
        1.46649         97.2157         15.7079 
        1.47263         96.6662         15.5526 
        1.47877         96.4295         15.3995 
        1.48491         95.4903         15.2481 
        1.49104         95.2712         15.0992 
        1.49718         94.5651         14.9521 
        1.50333         94.1499         14.8068 
        1.50947         93.6804         14.6636 
         1.5156         93.1162         14.5226 
        1.52172         92.5761         14.3835 
        1.52787         92.2819         14.2459 
          1.534         91.6348         14.1103 
        1.54013         91.0839         13.9765 
        1.54627         90.7714         13.8443 
        1.55241         90.1786         13.7138 
        1.55855         89.8544         13.5851 
        1.56467          89.406         13.4585 
         1.5708         88.8001         13.3331 
        1.57695         88.7078         13.2091 
        1.58308         87.7611          13.087 
        1.58922         87.6993         12.9664 
        1.59535            87.2         12.8473 
         1.6015         86.6042         12.7296 
        1.60764          86.194         12.6134 
        1.61376         85.9573          12.499 
        1.61989         85.3034         12.3859 
        1.62604         85.0722          12.274 
        1.63218         84.5908         12.1635 
        1.63831         83.8487         12.0547 
        1.64444         83.6214         11.9471 
        1.65059         83.1239         11.8406 
        1.65673         82.5287         11.7355 
        1.66285         82.3193          11.632 
        1.66898          81.794         11.5297 
        1.67512         81.3603         11.4285 
        1.68127         81.0147         11.3283 
         1.6874         80.5859         11.2296 
        1.69353         80.1476         11.1322 
        1.69967         79.6318         11.0356 
        1.70581         79.4799         10.9403 
        1.71193         79.1886         10.8464 
        1.71806         78.5348         10.7534 
        1.72421         78.1521         10.6614 
        1.73035         77.7613         10.5705 
        1.73649         77.3992         10.4807 
        1.74262         77.0125         10.3921 
        1.74876         76.6852         10.3044 
        1.75489         76.0696         10.2179 
        1.76101         75.8992         10.1324 
        1.76715         75.3894         10.0478 
        1.77329         75.1378           9.964 
        1.77943           74.57         9.88117 
        1.78557         74.4404         9.79941 
        1.79171         73.8898         9.71855 
        1.79785         73.5614          9.6386 
        1.80399         73.3004         9.55957 
        1.81012         73.0106         9.48153 
        1.81625         72.4354          9.4044 
        1.82239         72.1776         9.32801 
        1.82853         71.8923         9.25252 
        1.83466         71.4861         9.17793 
        1.84078         71.2082         9.10425 
        1.84692         70.6328         9.03126 
        1.85306         70.3371         8.95898 
         1.8592         69.9352         8.88761 
        1.86533           69.66         8.81706 
        1.87147         69.1847         8.74719 
        1.87761         68.9568         8.67805 
        1.88375         68.5836         8.60975 
        1.88988         68.3275         8.54225 
        1.89601         67.8977         8.47544 
        1.90215         67.5986         8.40929 
        1.90829         67.3436         8.34388 
        1.91442         66.9619         8.27916 
        1.92056         66.4437         8.21518 
         1.9267         66.3188         8.15182 
        1.93284         65.8539         8.08908 
        1.93897         65.5036         8.02713 
        1.94509          65.231         7.96596 
        1.95123         64.9197         7.90527 
        1.95737         64.7091         7.84518 
        1.96349         64.1876         7.78586 
        1.96964         64.0272         7.72699 
        1.97578         63.7416          7.6687 
        1.98192         63.4015         7.61113 
        1.98805         63.1929         7.55415 
        1.99419         62.6984         7.49775 
        2.00033          62.451          7.4419 
        2.00647         62.2137         7.38664 
         2.0126         61.7153         7.33203 
        2.01874         61.4636         7.27789 
        2.02488         61.2695         7.22425 
        2.03101         60.9973         7.17126 
        2.03714         60.6107         7.11884 
        2.04328          60.411         7.06689 
        2.04941         60.0469         7.01551 
        2.05554         59.7651         6.96467 
        2.06167         59.4566         6.91427 
        2.06781         59.2084         6.86437 
        2.07396         58.8534         6.81488 
        2.08009         58.6686         6.76597 
        2.08622         58.3819          6.7176 
        2.09237         58.0051          6.6696 
        2.09851         57.8743         6.62207 
        2.10464         57.4767         6.57508 
        2.11077         57.1576          6.5286 
        2.11691         56.9054         6.48247 
        2.12305         56.6853         6.43678 
        2.12918         56.4142         6.39164 
        2.13531         56.0621         6.34694 
        2.14145         55.8219         6.30255 
         2.1476         55.6172         6.25854 
        2.15372         55.3155         6.21517 
        2.15985         55.0179         6.17217 
        2.16599         54.7439         6.12945 
        2.17213         54.5436         6.08719 
        2.17827         54.2523         6.04533 
         2.1844         53.9358          6.0039 
        2.19054         53.6519         5.96285 
        2.19666         53.4098         5.92224 
         2.2028         53.3181         5.88197 
        2.20893         53.0575         5.84206 
        2.21508         52.7342         5.80248 
        2.22122         52.5045         5.76324 
        2.22736         52.2979         5.72446 
        2.23349         52.0283         5.68604 
        2.23962         51.6646         5.64795 
        2.24577         51.4118         5.61018 
         2.2519         51.1249         5.57281 
        2.25802          51.046         5.53584 
        2.26417         50.6892         5.49911 
        2.27031         50.5265         5.46267 
        2.27644         50.3002         5.42667 
        2.28257         49.9937           5.391 
        2.28872          49.707         5.35558 
        2.29486          49.567         5.32049 
        2.30099         49.3456         5.28578 
        2.30712         49.1145         5.25137 
        2.31326         48.8024         5.21721 
         2.3194         48.5501         5.18337 
        2.32553         48.3112         5.14989 
        2.33166         48.1165         5.11672 
         2.3378         47.8604          5.0838 
        2.34394         47.5852         5.05116 
        2.35007         47.3266         5.01885 
        2.35619         47.1854         4.98686 
        2.36233         47.0813         4.95508 
        2.36848         46.7407          4.9235 
        2.37462         46.5351         4.89227 
        2.38075         46.3415         4.86134 
        2.38689         46.1401         4.83066 
        2.39303         45.9184         4.80024 
        2.39916          45.716         4.77011 
        2.40529         45.5032         4.74025 
        2.41143         45.2938         4.71062 
        2.41757         45.0239         4.68123 
         2.4237          44.915         4.65215 
        2.42983         44.6441         4.62331 
        2.43598         44.3981         4.59464 
        2.44211         44.2492         4.56627 
        2.44823         43.9978          4.5382 
        2.45437         43.8142         4.51028 
        2.46052         43.4975         4.48258 
        2.46665         43.3639         4.45516 
        2.47279         43.2128         4.42798 
        2.47892         43.0193         4.40101 
        2.48507         42.7583         4.37423 
         2.4912         42.6299         4.34774 
