# k  (h/Mpc)    Pcb(k)  (Mpc/h)^3    Pcb_linear(k)  (Mpc/h)^3
     0.00783031         1911.46         1931.07 
       0.013688         2376.28         2376.67 
       0.019231         2397.74         2396.59 
      0.0249154         2189.51         2204.58 
      0.0312784         1895.49         1898.09 
      0.0375637         1614.42         1609.79 
      0.0433917         1396.23         1399.75 
      0.0492413         1251.04         1249.88 
      0.0555754         1132.76         1140.38 
      0.0619321         1065.08          1059.8 
       0.067871         984.183          989.57 
      0.0738098         906.481         911.933 
      0.0800417         812.723         820.398 
      0.0862327         723.207         726.023 
      0.0921407         642.659         642.267 
      0.0982031         569.189         570.493 
       0.104506         519.447         514.609 
       0.110769         480.335          476.47 
       0.116806         451.703         451.291 
       0.122832         433.839         431.477 
       0.129052          409.79          410.93 
       0.135211         386.004         386.995 
       0.141259         361.306         359.505 
       0.147318         333.694          329.89 
       0.153489         303.334         300.645 
       0.159709         278.989         274.948 
       0.165845         261.635         254.839 
       0.171974         244.384         239.978 
       0.178125         233.919         229.127 
       0.184229         225.722         220.584 
        0.19034         214.278         212.435 
       0.196428         207.513         203.429 
       0.202534         199.079         193.032 
       0.208729         186.578         181.429 
       0.214876         174.108         169.733 
       0.220989         165.483         158.876 
       0.227147         154.556          149.43 
        0.23329         147.133         141.764 
       0.239377         141.942          135.73 
       0.245482         134.965         130.772 
       0.251667         132.116         126.274 
       0.257832         127.485         121.785 
       0.263955         122.598         117.017 
       0.270079         117.593         111.897 
        0.27624         113.637         106.562 
       0.282372         108.513          101.36 
        0.28843         103.325         96.5903 
       0.294538         98.9425         92.3312 
       0.300721         96.3138         88.6218 
        0.30691          92.101         85.4255 
       0.313033         89.3667         82.6098 
       0.319153          85.417         79.9558 
       0.325316         84.0456         77.3006 
        0.33145         80.8741         74.6007 
       0.337538          78.631         71.8671 
       0.343633         75.6495         69.1377 
       0.349808         73.2288         66.4646 
       0.355968         70.9461         63.9711 
       0.362074         68.5556         61.7088 
       0.368217         66.5039         59.6523 
       0.374374         64.4499         57.7733 
       0.380519         62.8576         56.0273 
       0.386598         61.1752         54.3756 
       0.392688         59.8484         52.7502 
        0.39888         58.0526         51.1116 
       0.405048          56.587         49.4957 
       0.411186         55.1553          47.919 
       0.417313         53.3068         46.4042 
       0.423458         51.9139         44.9643 
       0.429607         50.4817         43.6105 
       0.435692         48.9023         42.3587 
       0.441815           48.08         41.1751 
       0.447964         47.2417          40.044 
       0.454126         45.3721         38.9528 
       0.460267          44.585         37.8966 
       0.466387          43.286         36.8664 
        0.47254         42.5897          35.853 
       0.478662         41.8113         34.8737 
       0.484765           40.55         33.9326 
       0.490885         39.6197         33.0273 
       0.497035         39.0882          32.158 
       0.503198         38.0406         31.3285 
       0.509342          37.065         30.5393 
       0.515458         36.3022         29.7843 
       0.521598         35.6789         29.0511 
       0.527764         34.9173         28.3364 
       0.533884         34.3158         27.6474 
           0.54         33.5627         26.9786 
       0.546137         33.0145         26.3267 
       0.552299         32.4638         25.6927 
       0.558452         31.4602         25.0813 
       0.564573         31.0044         24.4956 
       0.570708         30.4924         23.9306 
       0.576825          29.741         23.3875 
       0.582926          29.184         22.8637 
       0.589034          28.429         22.3549 
       0.595184         28.0597         21.8574 
       0.601379         27.5275         21.3707 
       0.607522         27.0346         20.9022 
       0.613639         26.7573         20.4495 
       0.619772         26.0544         20.0092 
       0.625918         25.9073         19.5812 
       0.632068         25.4752         19.1658 
       0.638161          24.925         18.7665 
         0.6443         24.4296          18.376 
       0.650464         23.9945         17.9956 
       0.656582         23.8348         17.6291 
       0.662703         23.3795         17.2729 
       0.668861         22.9455         16.9247 
       0.675024         22.5365         16.5859 
       0.681124         22.1485         16.2597 
       0.687237         21.7883         15.9416 
       0.693381         21.5819         15.6304 
       0.699536         21.0179          15.327 
       0.705665         20.9228          15.033 
       0.711789          20.485          14.747 
       0.717957         20.1986         14.4666 
        0.72409         19.8902         14.1952 
       0.730186         19.6166         13.9326 
       0.736317         19.4041         13.6752 
       0.742472          19.074         13.4235 
       0.748622         18.8565         13.1785 
        0.75476         18.5054         12.9402 
       0.760888         18.2567         12.7082 
       0.767043         18.0398          12.481 
       0.773185          17.703         12.2598 
       0.779291         17.6029         12.0454 
       0.785407         17.3691         11.8357 
       0.791564         17.0655         11.6298 
       0.797719         16.7104          11.429 
       0.803834         16.6704         11.2342 
       0.809972         16.5165         11.0432 
       0.816124         16.1374         10.8564 
       0.822261         15.9696         10.6744 
       0.828378         15.7908         10.4971 
       0.834502         15.6476         10.3238 
       0.840667         15.4152         10.1532 
       0.846816         15.1428          9.9871 
       0.852925          15.003         9.82574 
       0.859047         14.8334         9.66764 
       0.865192         14.6979         9.51253 
       0.871341         14.5676         9.36075 
       0.877463         14.3085           9.213 
       0.883569           14.12         9.06883 
       0.889708         13.9033         8.92704 
       0.895864         13.8015         8.78794 
       0.902008         13.6882         8.65211 
       0.908149         13.5358         8.51926 
       0.914301         13.4128           8.389 
       0.920448         13.1715         8.26161 
       0.926574         13.0467         8.13733 
       0.932687         12.9134          8.0159 
       0.938823         12.7404         7.89652 
       0.944975         12.5905         7.77932 
       0.951105         12.4802         7.66494 
       0.957225         12.3843         7.55307 
       0.963368         12.2492         7.44306 
       0.969511         12.1318         7.33526 
       0.975621         12.0044         7.23019 
       0.981748         11.8585         7.12692 
       0.987916         11.7757         7.02503 
        0.99406         11.6019         6.92553 
        1.00019          11.432         6.82816 
        1.00632         11.4133         6.73277 
        1.01246         11.2851         6.63907 
        1.01859          11.113         6.54732 
        1.02471          11.055         6.45743 
        1.03085         10.9431         6.36893 
        1.03698         10.7813         6.28229 
        1.04314         10.7214          6.1969 
        1.04929         10.5813         6.11331 
        1.05541         10.4655         6.03161 
        1.06154         10.3922         5.95121 
        1.06769         10.3418         5.87217 
        1.07382         10.1881         5.79482 
        1.07993         10.1099         5.71905 
        1.08607         10.0225         5.64433 
        1.09222         9.93668         5.57088 
        1.09836         9.82194         5.49882 
        1.10449         9.74174         5.42813 
        1.11063         9.64489         5.35862 
        1.11677         9.59538         5.29035 
         1.1229         9.52477         5.22339 
        1.12903         9.40626         5.15755 
        1.13518         9.29577         5.09279 
        1.14131         9.23056         5.02918 
        1.14745         9.14558         4.96671 
        1.15359         9.08684         4.90529 
        1.15973         9.00471         4.84489 
        1.16584         8.87502         4.78578 
        1.17197         8.82327         4.72758 
        1.17811         8.78148         4.67017 
        1.18424         8.69996         4.61389 
        1.19038         8.66026         4.55838 
        1.19652         8.56014         4.50381 
        1.20267         8.47123         4.45013 
        1.20881         8.44862         4.39735 
        1.21495         8.37375          4.3455 
        1.22108          8.2741         4.29451 
         1.2272         8.22347         4.24445 
        1.23334         8.13353         4.19509 
        1.23949         8.06577         4.14639 
        1.24562         8.03048         4.09861 
        1.25174         7.96412         4.05166 
        1.25789          7.9053          4.0053 
        1.26402         7.86279         3.95976 
        1.27014         7.79315         3.91504 
        1.27628         7.70144         3.87088 
        1.28244         7.63264         3.82732 
        1.28858         7.62751         3.78449 
        1.29471         7.53889         3.74242 
        1.30084          7.4663         3.70103 
        1.30697         7.46363          3.6602 
        1.31312         7.34207         3.61994 
        1.31925         7.29864         3.58041 
        1.32537         7.25202         3.54151 
        1.33151         7.22238         3.50306 
        1.33765         7.14507          3.4652 
        1.34378         7.09309         3.42797 
        1.34992         7.04849         3.39127 
        1.35606         6.99172         3.35503 
         1.3622          6.9542         3.31938 
        1.36833         6.89492         3.28434 
        1.37445         6.85338         3.24983 
        1.38059         6.82871          3.2157 
        1.38675         6.76664         3.18199 
        1.39288          6.7297          3.1489 
        1.39901         6.65212         3.11629 
        1.40515          6.6225         3.08407 
         1.4113         6.57948         3.05233 
        1.41742         6.53416         3.02115 
        1.42355         6.47462         2.99035 
         1.4297         6.43827         2.95989 
        1.43585         6.41161         2.92987 
        1.44198         6.38269         2.90038 
        1.44809         6.32156         2.87136 
        1.45423         6.27297         2.84262 
        1.46036          6.2287         2.81434 
        1.46649         6.19296         2.78643 
        1.47263         6.14003         2.75887 
        1.47877         6.10326         2.73171 
        1.48491          6.0692         2.70486 
        1.49104         6.03116         2.67844 
        1.49718         5.99776         2.65235 
        1.50333         5.96317         2.62657 
        1.50947         5.91475         2.60118 
         1.5156         5.88286         2.57617 
        1.52172         5.85079         2.55148 
        1.52787         5.81463         2.52708 
          1.534         5.76761         2.50302 
        1.54013         5.74539          2.4793 
        1.54627         5.69248         2.45584 
        1.55241         5.66305         2.43269 
        1.55855         5.64098         2.40987 
        1.56467         5.59715          2.3874 
         1.5708         5.57368         2.36516 
        1.57695         5.52263         2.34317 
        1.58308         5.48518         2.32151 
        1.58922         5.47271         2.30011 
        1.59535         5.44432         2.27899 
         1.6015         5.39764          2.2581 
        1.60764         5.36083         2.23749 
        1.61376         5.34025          2.2172 
        1.61989         5.31078         2.19714 
        1.62604         5.27132         2.17728 
        1.63218         5.26053         2.15768 
        1.63831         5.22431         2.13837 
        1.64444         5.19672         2.11929 
        1.65059         5.13975          2.1004 
        1.65673         5.14038         2.08176 
        1.66285         5.08801          2.0634 
        1.66898         5.06573         2.04526 
        1.67512         5.03916         2.02729 
        1.68127         5.00909         2.00953 
         1.6874          4.9929         1.99202 
        1.69353         4.94904         1.97473 
        1.69967         4.93021         1.95761 
        1.70581         4.90496         1.94069 
        1.71193         4.87486         1.92404 
        1.71806         4.85682         1.90755 
        1.72421         4.82193         1.89122 
        1.73035         4.80729          1.8751 
        1.73649         4.77687         1.85918 
        1.74262         4.74464         1.84345 
        1.74876         4.72975         1.82789 
        1.75489         4.70688         1.81254 
        1.76101         4.66707         1.79738 
        1.76715         4.65474         1.78237 
        1.77329          4.6306         1.76751 
        1.77943         4.58856         1.75282 
        1.78557         4.58176         1.73831 
        1.79171         4.55312         1.72397 
        1.79785         4.52875         1.70979 
        1.80399         4.50153         1.69577 
        1.81012         4.48341         1.68193 
        1.81625         4.45979         1.66824 
        1.82239         4.44002         1.65469 
        1.82853         4.41285          1.6413 
        1.83466         4.39794         1.62807 
        1.84078          4.3765           1.615 
        1.84692         4.36426         1.60205 
        1.85306         4.32535         1.58923 
         1.8592         4.30051         1.57657 
        1.86533         4.28413         1.56406 
        1.87147         4.26837         1.55166 
        1.87761          4.2424          1.5394 
        1.88375         4.22195         1.52728 
        1.88988          4.1993         1.51531 
        1.89601         4.18201         1.50346 
        1.90215         4.16403         1.49172 
        1.90829         4.13713         1.48012 
        1.91442         4.12265         1.46864 
        1.92056         4.09998         1.45729 
         1.9267         4.07804         1.44605 
        1.93284         4.06312         1.43492 
        1.93897         4.04242         1.42393 
        1.94509         4.02237         1.41308 
        1.95123         4.00189         1.40232 
        1.95737         3.97712         1.39165 
        1.96349         3.96803         1.38113 
        1.96964         3.95342         1.37069 
        1.97578         3.92262         1.36035 
        1.98192         3.91419         1.35014 
        1.98805         3.89739         1.34003 
        1.99419         3.87721         1.33002 
        2.00033         3.86511         1.32012 
        2.00647         3.84154         1.31031 
         2.0126         3.83029         1.30063 
        2.01874         3.80117         1.29102 
        2.02488          3.7946         1.28151 
        2.03101         3.76411         1.27211 
        2.03714         3.75229         1.26281 
        2.04328           3.735          1.2536 
        2.04941         3.71169         1.24448 
        2.05554         3.70168         1.23546 
        2.06167         3.69041         1.22652 
        2.06781         3.67023         1.21767 
        2.07396         3.66063         1.20889 
        2.08009         3.64163         1.20021 
        2.08622         3.62043         1.19163 
        2.09237         3.60798         1.18312 
        2.09851         3.59435         1.17469 
        2.10464         3.57955         1.16635 
        2.11077         3.55861         1.15811 
        2.11691         3.54526         1.14992 
        2.12305         3.53406         1.14182 
        2.12918         3.52412         1.13381 
        2.13531         3.50653         1.12588 
        2.14145         3.49088         1.11801 
         2.1476          3.4699          1.1102 
        2.15372         3.45642         1.10251 
        2.15985         3.45116         1.09488 
        2.16599         3.42846          1.0873 
        2.17213         3.41274          1.0798 
        2.17827         3.40455         1.07238 
         2.1844         3.38644         1.06503 
        2.19054         3.37602         1.05775 
        2.19666         3.35765         1.05054 
         2.2028         3.34316          1.0434 
        2.20893         3.33295         1.03632 
        2.21508         3.31487          1.0293 
        2.22122         3.30212         1.02234 
        2.22736         3.29053         1.01546 
        2.23349         3.28227         1.00865 
        2.23962         3.26478         1.00189 
        2.24577         3.25197        0.995189 
         2.2519         3.24296         0.98856 
        2.25802         3.22734        0.982002 
        2.26417         3.21693        0.975485 
        2.27031         3.20001        0.969022 
        2.27644         3.18758        0.962636 
        2.28257         3.17239        0.956308 
        2.28872         3.16763        0.950025 
        2.29486         3.14938          0.9438 
        2.30099         3.13571        0.937644 
        2.30712         3.12345         0.93154 
        2.31326         3.11004         0.92548 
         2.3194         3.10176        0.919477 
        2.32553         3.08873        0.913538 
        2.33166         3.08116        0.907654 
         2.3378         3.06677        0.901814 
        2.34394         3.05528        0.896024 
        2.35007         3.04117        0.890292 
        2.35619         3.03411        0.884618 
        2.36233         3.02287         0.87898 
        2.36848         3.00538         0.87338 
        2.37462         3.00137         0.86784 
        2.38075         2.98597        0.862353 
        2.38689         2.97887        0.856909 
        2.39303         2.96513        0.851513 
        2.39916         2.95364         0.84617 
        2.40529         2.94338        0.840872 
        2.41143         2.93191        0.835616 
        2.41757         2.92179        0.830403 
         2.4237         2.91368        0.825243 
        2.42983         2.88945        0.820128 
        2.43598         2.89119        0.815043 
        2.44211         2.87349        0.810009 
        2.44823         2.86895        0.805029 
        2.45437         2.85349        0.800078 
        2.46052         2.84903        0.795164 
        2.46665         2.83849          0.7903 
        2.47279         2.82626        0.785478 
        2.47892         2.81777        0.780694 
        2.48507         2.80701        0.775944 
         2.4912         2.79067        0.771244 
