# k  (h/Mpc)    Pcb(k)  (Mpc/h)^3    Pcb_linear(k)  (Mpc/h)^3
     0.00783031         10379.2         10516.8 
       0.013688           13022         12937.1 
       0.019231         13060.8         13039.3 
      0.0249154         11789.9         11990.1 
      0.0312784         10237.7         10320.7 
      0.0375637         8759.75         8751.83 
      0.0433917         7507.94         7609.19 
      0.0492413         6760.78         6793.96 
      0.0555754         6048.58         6198.33 
      0.0619321         5774.36          5760.1 
       0.067871         5260.27         5378.22 
      0.0738098         4846.81         4956.13 
      0.0800417         4323.18         4458.55 
      0.0862327         3875.45         3945.59 
      0.0921407         3484.86         3490.36 
      0.0982031         3084.46         3100.27 
       0.104506         2862.75         2796.54 
       0.110769         2645.94         2589.26 
       0.116806         2488.69         2452.41 
       0.122832         2384.76         2344.72 
       0.129052         2226.41         2233.05 
       0.135211         2105.65         2102.97 
       0.141259         1994.82         1953.58 
       0.147318         1858.19         1792.64 
       0.153489         1690.37         1633.72 
       0.159709         1581.83         1494.07 
       0.165845         1505.72          1384.8 
       0.171974         1416.38         1304.04 
       0.178125         1351.86         1245.07 
       0.184229         1300.92         1198.64 
        0.19034         1223.33         1154.36 
       0.196428         1199.45         1105.42 
       0.202534         1155.31         1048.93 
       0.208729            1093         985.875 
       0.214876         1033.52         922.314 
       0.220989         994.411         863.317 
       0.227147          943.02         811.987 
        0.23329         903.694         770.332 
       0.239377         884.516         737.543 
       0.245482         827.359         710.599 
       0.251667         821.074         686.157 
       0.257832         791.016         661.765 
       0.263955         764.281         635.856 
       0.270079         735.553         608.034 
        0.27624          725.27         579.045 
       0.282372         694.295         550.777 
        0.28843          678.17         524.859 
       0.294538         644.293         501.715 
       0.300721         640.356         481.558 
        0.30691          611.48          464.19 
       0.313033         599.484          448.89 
       0.319153         582.031         434.468 
       0.325316         564.871          420.04 
        0.33145         548.718         405.369 
       0.337538         540.989         390.515 
       0.343633         523.918         375.684 
       0.349808         506.003         361.158 
       0.355968         501.364         347.609 
       0.362074         492.072         335.316 
       0.368217          478.35         324.141 
       0.374374         458.776         313.931 
       0.380519          455.68         304.443 
       0.386598         444.156         295.468 
       0.392688         441.243         286.636 
        0.39888         428.496         277.732 
       0.405048         419.576         268.951 
       0.411186         411.928         260.384 
       0.417313         404.114         252.153 
       0.423458         396.592         244.328 
       0.429607         388.974         236.972 
       0.435692         379.388          230.17 
       0.441815         376.337         223.739 
       0.447964         368.613         217.592 
       0.454126         357.877         211.663 
       0.460267         352.648         205.924 
       0.466387         348.572         200.326 
        0.47254          341.34         194.819 
       0.478662          340.32         189.498 
       0.484765         329.225         184.383 
       0.490885         325.666         179.464 
       0.497035         320.156         174.741 
       0.503198         314.325         170.233 
       0.509342         311.738         165.945 
       0.515458         307.939         161.843 
       0.521598         301.588         157.859 
       0.527764         296.678         153.975 
       0.533884         294.034         150.231 
           0.54         289.784         146.597 
       0.546137         288.455         143.055 
       0.552299          282.41         139.609 
       0.558452         280.259         136.287 
       0.564573         275.922         133.104 
       0.570708         270.744         130.034 
       0.576825         266.594         127.083 
       0.582926          263.93         124.237 
       0.589034         261.293         121.472 
       0.595184         258.646         118.769 
       0.601379         255.673         116.124 
       0.607522         251.177         113.579 
       0.613639         249.827         111.119 
       0.619772         244.183         108.726 
       0.625918         242.908         106.401 
       0.632068         239.384         104.143 
       0.638161         238.284         101.973 
         0.6443         234.343         99.8517 
       0.650464         232.085         97.7849 
       0.656582         230.343         95.7932 
       0.662703         228.612         93.8578 
       0.668861         224.558         91.9658 
       0.675024         221.983         90.1246 
       0.681124         221.034         88.3523 
       0.687237         218.025         86.6236 
       0.693381         214.769         84.9328 
       0.699536         213.183         83.2841 
       0.705665         211.902         81.6865 
       0.711789         209.064         80.1325 
       0.717957          208.14         78.6089 
        0.72409         205.601         77.1342 
       0.730186          203.06         75.7068 
       0.736317         201.054         74.3085 
       0.742472         200.047         72.9408 
       0.748622         198.276         71.6094 
        0.75476         196.639         70.3144 
       0.760888         193.972         69.0537 
       0.767043         193.655         67.8192 
       0.773185         191.445         66.6176 
       0.779291         187.992         65.4522 
       0.785407         187.497         64.3132 
       0.791564         185.765         63.1943 
       0.797719          183.28         62.1028 
       0.803834         182.377         61.0443 
       0.809972         180.944         60.0068 
       0.816124         180.736         58.9914 
       0.822261         178.271         58.0024 
       0.828378         176.679         57.0393 
       0.834502         176.441         56.0973 
       0.840667         173.679         55.1708 
       0.846816         172.293         54.2679 
       0.852925         171.586         53.3912 
       0.859047         169.719         52.5321 
       0.865192         168.321         51.6892 
       0.871341         166.805         50.8645 
       0.877463          165.59         50.0616 
       0.883569         164.805         49.2783 
       0.889708         163.294         48.5078 
       0.895864           161.4         47.7519 
       0.902008         160.683         47.0139 
       0.908149         160.036          46.292 
       0.914301         158.176         45.5842 
       0.920448         156.984          44.892 
       0.926574         156.156         44.2167 
       0.932687         155.795         43.5568 
       0.938823         153.707         42.9081 
       0.944975         152.269         42.2713 
       0.951105         151.712         41.6498 
       0.957225          150.11         41.0419 
       0.963368         148.545         40.4441 
       0.969511         148.211         39.8584 
       0.975621         147.313         39.2874 
       0.981748         146.744         38.7263 
       0.987916         145.056         38.1726 
        0.99406         144.014         37.6319 
        1.00019         143.736         37.1029 
        1.00632         142.338         36.5845 
        1.01246         141.508         36.0754 
        1.01859          140.48         35.5769 
        1.02471         139.418         35.0884 
        1.03085         138.029         34.6075 
        1.03698         137.493         34.1367 
        1.04314         136.249         33.6727 
        1.04929         135.406         33.2185 
        1.05541         134.799         32.7746 
        1.06154         133.896         32.3377 
        1.06769         133.766         31.9082 
        1.07382         132.602         31.4879 
        1.07993         131.472         31.0762 
        1.08607         130.614         30.6702 
        1.09222         130.156          30.271 
        1.09836         129.001         29.8795 
        1.10449         127.973         29.4954 
        1.11063         127.119         29.1177 
        1.11677         126.803         28.7467 
         1.1229         125.469         28.3829 
        1.12903         124.798         28.0251 
        1.13518          124.73         27.6732 
        1.14131         123.442         27.3276 
        1.14745         122.846         26.9881 
        1.15359         121.996         26.6544 
        1.15973         121.625         26.3261 
        1.16584         120.337          26.005 
        1.17197         119.829         25.6887 
        1.17811         119.155         25.3768 
        1.18424         118.544          25.071 
        1.19038         118.092         24.7693 
        1.19652         117.235         24.4728 
        1.20267         116.452         24.1811 
        1.20881         115.611         23.8943 
        1.21495         115.016         23.6126 
        1.22108         114.475         23.3355 
         1.2272         113.422         23.0635 
        1.23334         112.997         22.7953 
        1.23949         111.998         22.5307 
        1.24562         111.631          22.271 
        1.25174         110.653         22.0159 
        1.25789         110.271          21.764 
        1.26402         109.639         21.5165 
        1.27014         108.976         21.2735 
        1.27628         108.462         21.0336 
        1.28244         107.846         20.7969 
        1.28858         107.514         20.5642 
        1.29471         106.397         20.3355 
        1.30084         106.035         20.1106 
        1.30697         105.345         19.8888 
        1.31312         104.982           19.67 
        1.31925         104.081         19.4552 
        1.32537         103.701         19.2439 
        1.33151         102.725         19.0349 
        1.33765         102.371         18.8292 
        1.34378         101.764         18.6269 
        1.34992         101.546         18.4275 
        1.35606         100.844         18.2306 
         1.3622         99.9997         18.0369 
        1.36833         99.7097         17.8465 
        1.37445         99.0268         17.6589 
        1.38059         98.5372         17.4735 
        1.38675         97.8196         17.2903 
        1.39288         97.4486         17.1105 
        1.39901         97.1105         16.9333 
        1.40515         96.4056         16.7582 
         1.4113         95.7089         16.5857 
        1.41742          95.592         16.4163 
        1.42355         94.7952          16.249 
         1.4297         94.3738         16.0835 
        1.43585          93.636         15.9203 
        1.44198         93.3524         15.7601 
        1.44809         92.7449         15.6024 
        1.45423         92.2025         15.4462 
        1.46036         92.0143         15.2925 
        1.46649         91.3648         15.1409 
        1.47263          90.837         14.9912 
        1.47877          90.635         14.8435 
        1.48491         89.8007         14.6977 
        1.49104         89.5279         14.5541 
        1.49718          88.919         14.4123 
        1.50333         88.4862         14.2722 
        1.50947         88.0389         14.1343 
         1.5156         87.5588         13.9984 
        1.52172         87.0503         13.8643 
        1.52787         86.8223         13.7316 
          1.534         86.1923         13.6009 
        1.54013         85.6358          13.472 
        1.54627          85.361         13.3446 
        1.55241         84.8258         13.2187 
        1.55855         84.5338         13.0947 
        1.56467          84.038         12.9727 
         1.5708         83.5581         12.8518 
        1.57695         83.4299         12.7323 
        1.58308         82.5284         12.6146 
        1.58922         82.4807         12.4983 
        1.59535         82.0773         12.3836 
         1.6015           81.45         12.2701 
        1.60764         81.1073         12.1581 
        1.61376         80.8058         12.0478 
        1.61989         80.2635         11.9388 
        1.62604          80.034         11.8309 
        1.63218         79.5977         11.7244 
        1.63831         78.9228         11.6195 
        1.64444         78.6785         11.5158 
        1.65059         78.1931         11.4132 
        1.65673         77.7371         11.3119 
        1.66285         77.4624         11.2121 
        1.66898         76.9951         11.1135 
        1.67512         76.5618         11.0159 
        1.68127         76.2548         10.9194 
         1.6874         75.8919         10.8242 
        1.69353         75.5056         10.7303 
        1.69967         74.9705         10.6372 
        1.70581         74.8558         10.5453 
        1.71193         74.6028         10.4549 
        1.71806         73.9253         10.3653 
        1.72421         73.6354         10.2765 
        1.73035         73.2601         10.1889 
        1.73649         72.9134         10.1024 
        1.74262         72.5977         10.0169 
        1.74876         72.2522         9.93238 
        1.75489         71.7095           9.849 
        1.76101         71.5414          9.7666 
        1.76715          71.064         9.68504 
        1.77329         70.8226         9.60431 
        1.77943         70.2886         9.52446 
        1.78557         70.1551         9.44565 
        1.79171         69.6777         9.36772 
        1.79785         69.3828         9.29065 
        1.80399         69.1305         9.21447 
        1.81012         68.8544         9.13925 
        1.81625         68.2817          9.0649 
        1.82239         68.0311         8.99127 
        1.82853         67.7413          8.9185 
        1.83466         67.4158         8.84661 
        1.84078         67.0992         8.77559 
        1.84692         66.5826         8.70523 
        1.85306         66.3406         8.63556 
         1.8592         65.9131         8.56677 
        1.86533          65.705         8.49876 
        1.87147         65.2744         8.43142 
        1.87761          65.034         8.36478 
        1.88375         64.6999         8.29894 
        1.88988         64.5025         8.23388 
        1.89601         64.0803         8.16948 
        1.90215         63.7833         8.10571 
        1.90829         63.5848         8.04267 
        1.91442         63.1919         7.98028 
        1.92056         62.7237         7.91862 
         1.9267         62.5938         7.85754 
        1.93284         62.1796         7.79707 
        1.93897         61.8421         7.73735 
        1.94509         61.5508         7.67839 
        1.95123          61.313          7.6199 
        1.95737         61.1119         7.56197 
        1.96349         60.6276          7.5048 
        1.96964         60.5069         7.44805 
        1.97578         60.2004         7.39186 
        1.98192         59.8817         7.33637 
        1.98805         59.7389         7.28145 
        1.99419         59.2557         7.22708 
        2.00033         59.0041         7.17325 
        2.00647         58.7887         7.11998 
         2.0126         58.3151         7.06734 
        2.01874         58.1229         7.01516 
        2.02488         57.9461         6.96346 
        2.03101         57.6476         6.91238 
        2.03714         57.3135         6.86185 
        2.04328         57.1164         6.81178 
        2.04941         56.7536         6.76225 
        2.05554         56.4474         6.71325 
        2.06167         56.2269         6.66467 
        2.06781         56.0145         6.61656 
        2.07396         55.6605         6.56887 
        2.08009          55.491         6.52172 
        2.08622         55.1883         6.47509 
        2.09237         54.8603         6.42883 
        2.09851         54.7289         6.38301 
        2.10464         54.3733         6.33772 
        2.11077         54.0794         6.29292 
        2.11691         53.8439         6.24845 
        2.12305         53.6321         6.20441 
        2.12918         53.3529         6.16091 
        2.13531         53.0577         6.11781 
        2.14145         52.8127         6.07503 
         2.1476         52.6355         6.03261 
        2.15372         52.3283         5.99081 
        2.15985         52.0532         5.94936 
        2.16599         51.8187         5.90818 
        2.17213         51.6303         5.86744 
        2.17827         51.3642         5.82709 
         2.1844         51.0682         5.78716 
        2.19054         50.7792         5.74759 
        2.19666         50.5728         5.70845 
         2.2028         50.4515         5.66964 
        2.20893         50.2405         5.63116 
        2.21508         49.9664         5.59301 
        2.22122         49.7072         5.55519 
        2.22736         49.5282         5.51781 
        2.23349          49.311         5.48078 
        2.23962         48.9176         5.44406 
        2.24577         48.6974         5.40766 
         2.2519         48.4291         5.37164 
        2.25802         48.3712           5.336 
        2.26417         48.0605         5.30059 
        2.27031         47.8878         5.26547 
        2.27644         47.6324         5.23077 
        2.28257         47.3853         5.19638 
        2.28872         47.0861         5.16224 
        2.29486         46.9624         5.12842 
        2.30099         46.7859         5.09497 
        2.30712         46.5437          5.0618 
        2.31326         46.2608         5.02887 
         2.3194         46.0201         4.99625 
        2.32553         45.8154         4.96398 
        2.33166         45.6446         4.93201 
         2.3378          45.352         4.90028 
        2.34394         45.1148         4.86881 
        2.35007         44.8757         4.83767 
        2.35619         44.7587         4.80684 
        2.36233         44.6582          4.7762 
        2.36848         44.3113         4.74577 
        2.37462         44.1381         4.71566 
        2.38075         43.9446         4.68585 
        2.38689         43.8012         4.65627 
        2.39303         43.5663         4.62695 
        2.39916         43.3532         4.59791 
        2.40529         43.1405         4.56913 
        2.41143         42.9758         4.54057 
        2.41757         42.7402         4.51224 
         2.4237         42.6373          4.4842 
        2.42983         42.3867         4.45641 
        2.43598         42.1326         4.42878 
        2.44211         41.9818         4.40143 
        2.44823         41.7689         4.37437 
        2.45437         41.6173         4.34746 
        2.46052           41.29         4.32076 
        2.46665         41.1736         4.29433 
        2.47279          41.045         4.26813 
        2.47892          40.828         4.24213 
        2.48507         40.6174         4.21632 
         2.4912          40.484         4.19078 
