# k  (h/Mpc)    Pcb(k)  (Mpc/h)^3    Pcb_linear(k)  (Mpc/h)^3
     0.00783031         1436.75          1451.1 
       0.013688         1784.44         1786.05 
       0.019231         1801.55         1801.12 
      0.0249154          1646.9          1656.9 
      0.0312784          1425.2         1426.61 
      0.0375637         1213.34         1209.94 
      0.0433917         1050.23         1052.08 
      0.0492413         940.571         939.448 
      0.0555754         852.521         857.148 
      0.0619321         800.297         796.588 
       0.067871         740.504         743.804 
      0.0738098         682.067          685.45 
      0.0800417         611.825          616.65 
      0.0862327         544.077         545.715 
      0.0921407         483.063          482.76 
      0.0982031         427.994         428.812 
       0.104506         389.943         386.807 
       0.110769         360.615          358.14 
       0.116806         339.308         339.214 
       0.122832         325.773         324.322 
       0.129052         308.068         308.878 
       0.135211         290.113         290.887 
       0.141259         271.251         270.224 
       0.147318         250.333         247.964 
       0.153489           227.6         225.982 
       0.159709         209.044         206.666 
       0.165845         195.764         191.552 
       0.171974         182.897         180.381 
       0.178125         175.034         172.225 
       0.184229         168.882         165.803 
        0.19034         160.646         159.678 
       0.196428         155.287         152.909 
       0.202534         148.805         145.094 
       0.208729         139.426         136.373 
       0.214876         130.085         127.581 
       0.220989          123.41          119.42 
       0.227147         115.246          112.32 
        0.23329         109.628         106.558 
       0.239377         105.602         102.022 
       0.245482         100.667         98.2955 
       0.251667         98.3631         94.9146 
       0.257832         94.8458         91.5405 
       0.263955         91.2244         87.9567 
       0.270079          87.458         84.1083 
        0.27624         84.3242         80.0983 
       0.282372         80.4689         76.1881 
        0.28843         76.5524         72.6029 
       0.294538         73.3033         69.4015 
       0.300721         71.1954         66.6133 
        0.30691         68.1225         64.2108 
       0.313033         66.0547         62.0944 
       0.319153         63.1746         60.0995 
       0.325316         62.1415         58.1037 
        0.33145          59.808         56.0743 
       0.337538          58.006         54.0195 
       0.343633         55.7712          51.968 
       0.349808         53.9722         49.9587 
       0.355968         52.1993         48.0845 
       0.362074         50.4102          46.384 
       0.368217         48.8811         44.8382 
       0.374374         47.3144         43.4258 
       0.380519         46.1363         42.1134 
       0.386598         44.9044         40.8719 
       0.392688         43.8793         39.6501 
        0.39888         42.5287         38.4185 
       0.405048         41.4244         37.2039 
       0.411186         40.3326         36.0187 
       0.417313         38.9509         34.8801 
       0.423458          37.913         33.7978 
       0.429607         36.8286         32.7802 
       0.435692         35.7131         31.8393 
       0.441815         35.0147         30.9496 
       0.447964         34.3839         30.0994 
       0.454126          33.085         29.2792 
       0.460267          32.452         28.4853 
       0.466387          31.464          27.711 
        0.47254         30.9291         26.9492 
       0.478662         30.3254         26.2132 
       0.484765         29.4026         25.5057 
       0.490885         28.7036         24.8252 
       0.497035         28.3081         24.1718 
       0.503198         27.5431         23.5484 
       0.509342         26.8464         22.9551 
       0.515458         26.2508         22.3876 
       0.521598         25.7678         21.8365 
       0.527764         25.1803         21.2993 
       0.533884         24.7426         20.7814 
           0.54         24.1856         20.2787 
       0.546137         23.7536         19.7887 
       0.552299         23.3299         19.3121 
       0.558452         22.6076         18.8526 
       0.564573         22.2888         18.4123 
       0.570708         21.8804         17.9876 
       0.576825         21.3193         17.5794 
       0.582926         20.9339         17.1857 
       0.589034         20.3702         16.8033 
       0.595184         20.0859         16.4293 
       0.601379         19.6736         16.0635 
       0.607522         19.3561         15.7113 
       0.613639         19.1204         15.3711 
       0.619772         18.6082         15.0401 
       0.625918         18.4772         14.7184 
       0.632068         18.1671         14.4062 
       0.638161         17.7453          14.106 
         0.6443         17.3843         13.8125 
       0.650464         17.0541         13.5266 
       0.656582         16.9277         13.2511 
       0.662703         16.6076         12.9834 
       0.668861          16.295         12.7216 
       0.675024         15.9845         12.4669 
       0.681124         15.7085         12.2218 
       0.687237         15.4606         11.9826 
       0.693381         15.2797         11.7488 
       0.699536         14.8682         11.5207 
       0.705665         14.7504         11.2997 
       0.711789         14.4731         11.0847 
       0.717957         14.2491          10.874 
        0.72409         14.0172           10.67 
       0.730186         13.8278         10.4725 
       0.736317         13.6734         10.2791 
       0.742472         13.4481         10.0899 
       0.748622         13.2562         9.90573 
        0.75476         12.9927         9.72659 
       0.760888         12.8275          9.5522 
       0.767043         12.6703         9.38143 
       0.773185         12.4195         9.21522 
       0.779291         12.3334         9.05401 
       0.785407         12.1493         8.89645 
       0.791564         11.9479         8.74168 
       0.797719         11.7171         8.59069 
       0.803834         11.6614         8.44427 
       0.809972         11.5438         8.30075 
       0.816124         11.2885         8.16029 
       0.822261         11.1386         8.02348 
       0.828378          11.006         7.89025 
       0.834502         10.9114         7.75995 
       0.840667         10.7247         7.63178 
       0.846816          10.538         7.50689 
       0.852925         10.4431         7.38561 
       0.859047         10.3147         7.26677 
       0.865192         10.2218         7.15018 
       0.871341         10.1154          7.0361 
       0.877463         9.94437         6.92503 
       0.883569         9.79506         6.81667 
       0.889708         9.63824         6.71009 
       0.895864         9.56115         6.60553 
       0.902008         9.46613         6.50344 
       0.908149         9.36157         6.40358 
       0.914301         9.24255         6.30567 
       0.920448           9.097         6.20992 
       0.926574         8.99308          6.1165 
       0.932687         8.90514         6.02522 
       0.938823           8.785         5.93549 
       0.944975         8.67333          5.8474 
       0.951105         8.59235         5.76142 
       0.957225         8.54204         5.67733 
       0.963368         8.42891         5.59465 
       0.969511         8.33534         5.51362 
       0.975621          8.2343         5.43464 
       0.981748         8.14391         5.35701 
       0.987916         8.07327         5.28043 
        0.99406         7.94387         5.20563 
        1.00019         7.82937         5.13245 
        1.00632         7.80876         5.06075 
        1.01246         7.71605         4.99032 
        1.01859         7.60486         4.92135 
        1.02471         7.54574         4.85379 
        1.03085         7.46556         4.78727 
        1.03698         7.36162         4.72214 
        1.04314         7.31214         4.65796 
        1.04929         7.21727         4.59513 
        1.05541         7.13439         4.53372 
        1.06154         7.07866         4.47328 
        1.06769         7.04248         4.41387 
        1.07382         6.92856         4.35573 
        1.07993         6.86243         4.29878 
        1.08607         6.81657         4.24261 
        1.09222         6.74616          4.1874 
        1.09836         6.67382         4.13324 
        1.10449          6.6095         4.08011 
        1.11063         6.54324         4.02785 
        1.11677          6.5003         3.97654 
         1.1229         6.44284         3.92621 
        1.12903         6.36469         3.87672 
        1.13518         6.29611         3.82804 
        1.14131         6.22996         3.78023 
        1.14745         6.16363         3.73327 
        1.15359          6.1285          3.6871 
        1.15973          6.0658          3.6417 
        1.16584         5.99039         3.59727 
        1.17197         5.94456         3.55353 
        1.17811           5.913         3.51038 
        1.18424         5.85841         3.46807 
        1.19038         5.82356         3.42635 
        1.19652         5.75786         3.38533 
        1.20267         5.69542         3.34498 
        1.20881         5.66827         3.30531 
        1.21495         5.61557         3.26634 
        1.22108         5.55411         3.22801 
         1.2272         5.52205         3.19038 
        1.23334         5.45218         3.15328 
        1.23949         5.40423         3.11667 
        1.24562         5.37795         3.08076 
        1.25174         5.32082         3.04547 
        1.25789         5.28441         3.01062 
        1.26402         5.24505         2.97639 
        1.27014         5.19764         2.94277 
        1.27628         5.15074         2.90958 
        1.28244         5.09216         2.87684 
        1.28858         5.08032         2.84465 
        1.29471         5.02037         2.81302 
        1.30084         4.97303         2.78191 
        1.30697         4.97292         2.75122 
        1.31312         4.88108         2.72096 
        1.31925         4.85734         2.69125 
        1.32537         4.81741         2.66201 
        1.33151         4.79959          2.6331 
        1.33765         4.73802         2.60465 
        1.34378         4.70693         2.57667 
        1.34992         4.68335         2.54908 
        1.35606         4.62601         2.52184 
         1.3622         4.60722         2.49505 
        1.36833         4.56841         2.46871 
        1.37445         4.53479         2.44276 
        1.38059         4.51811         2.41711 
        1.38675         4.48177         2.39177 
        1.39288         4.44518          2.3669 
        1.39901         4.39553         2.34239 
        1.40515         4.37012         2.31817 
         1.4113         4.34157         2.29431 
        1.41742         4.31165         2.27087 
        1.42355         4.27359         2.24773 
         1.4297         4.24205         2.22483 
        1.43585         4.22442         2.20226 
        1.44198         4.20206          2.1801 
        1.44809         4.15707         2.15828 
        1.45423         4.12499         2.13668 
        1.46036         4.09178         2.11542 
        1.46649         4.06516         2.09444 
        1.47263         4.03362         2.07373 
        1.47877         4.00295         2.05331 
        1.48491         3.97834         2.03314 
        1.49104         3.95589         2.01327 
        1.49718         3.92861         1.99366 
        1.50333         3.90561         1.97428 
        1.50947         3.87354          1.9552 
         1.5156         3.84815          1.9364 
        1.52172         3.82498         1.91785 
        1.52787         3.80215          1.8995 
          1.534         3.76911         1.88142 
        1.54013         3.75248         1.86359 
        1.54627         3.71659         1.84596 
        1.55241         3.69199         1.82855 
        1.55855         3.67746          1.8114 
        1.56467         3.65207         1.79451 
         1.5708         3.62622         1.77779 
        1.57695          3.5962         1.76126 
        1.58308         3.57032         1.74498 
        1.58922         3.56084          1.7289 
        1.59535         3.53676         1.71302 
         1.6015         3.50949         1.69732 
        1.60764         3.48765         1.68183 
        1.61376         3.46897         1.66658 
        1.61989         3.44592          1.6515 
        1.62604         3.42069         1.63657 
        1.63218         3.41254         1.62184 
        1.63831         3.38315         1.60733 
        1.64444         3.36255         1.59299 
        1.65059         3.33527         1.57879 
        1.65673         3.32574         1.56478 
        1.66285         3.29544         1.55097 
        1.66898         3.27991         1.53734 
        1.67512         3.25524         1.52383 
        1.68127         3.23764         1.51048 
         1.6874         3.22791         1.49732 
        1.69353         3.19198         1.48433 
        1.69967         3.18033         1.47145 
        1.70581         3.16701         1.45874 
        1.71193         3.14472         1.44622 
        1.71806         3.13061         1.43383 
        1.72421         3.11007         1.42156 
        1.73035         3.09527         1.40944 
        1.73649         3.07291         1.39747 
        1.74262         3.05348         1.38564 
        1.74876         3.04476         1.37395 
        1.75489         3.02263         1.36242 
        1.76101         2.99904         1.35102 
        1.76715         2.98935         1.33973 
        1.77329         2.97584         1.32857 
        1.77943         2.94529         1.31752 
        1.78557         2.93735         1.30662 
        1.79171         2.92291         1.29584 
        1.79785         2.90239         1.28518 
        1.80399           2.887         1.27464 
        1.81012         2.87459         1.26424 
        1.81625         2.85662         1.25395 
        1.82239         2.83935         1.24377 
        1.82853         2.81999          1.2337 
        1.83466         2.81403         1.22375 
        1.84078         2.79724         1.21393 
        1.84692         2.78569          1.2042 
        1.85306         2.76174         1.19456 
         1.8592         2.74571         1.18504 
        1.86533         2.73327         1.17564 
        1.87147         2.72409         1.16632 
        1.87761         2.70574          1.1571 
        1.88375         2.69016         1.14799 
        1.88988         2.67641         1.13899 
        1.89601         2.66249         1.13009 
        1.90215         2.64633         1.12127 
        1.90829         2.62957         1.11254 
        1.91442         2.62302         1.10392 
        1.92056         2.60449         1.09538 
         1.9267          2.5937         1.08694 
        1.93284         2.58361         1.07857 
        1.93897         2.56977         1.07031 
        1.94509         2.55153         1.06215 
        1.95123         2.53794         1.05406 
        1.95737         2.52339         1.04605 
        1.96349         2.51614         1.03814 
        1.96964         2.50772         1.03029 
        1.97578         2.48694         1.02252 
        1.98192         2.47833         1.01484 
        1.98805          2.4669         1.00725 
        1.99419         2.45491        0.999725 
        2.00033         2.44691        0.992278 
        2.00647         2.42967         0.98491 
         2.0126         2.42176        0.977628 
        2.01874         2.40161         0.97041 
        2.02488          2.3962        0.963258 
        2.03101         2.37678        0.956192 
        2.03714         2.36885        0.949203 
        2.04328         2.35864        0.942276 
        2.04941         2.34095        0.935425 
        2.05554         2.33606        0.928646 
        2.06167         2.32565        0.921926 
        2.06781         2.31583        0.915272 
        2.07396         2.30536        0.908674 
        2.08009         2.29283        0.902152 
        2.08622         2.27942        0.895702 
        2.09237         2.27106        0.889302 
        2.09851         2.25968        0.882965 
        2.10464         2.25394        0.876699 
        2.11077         2.23933        0.870502 
        2.11691         2.22911        0.864351 
        2.12305         2.22117        0.858259 
        2.12918          2.2128         0.85224 
        2.13531         2.20097        0.846279 
        2.14145         2.18995        0.840361 
         2.1476         2.17658        0.834493 
        2.15372         2.16777         0.82871 
        2.15985          2.1588        0.822977 
        2.16599         2.15078        0.817281 
        2.17213         2.13545        0.811645 
        2.17827         2.13013        0.806064 
         2.1844         2.12098         0.80054 
        2.19054         2.11337        0.795067 
        2.19666         2.10121        0.789652 
         2.2028         2.09129        0.784283 
        2.20893         2.08359        0.778961 
        2.21508         2.07386        0.773683 
        2.22122         2.06217        0.768452 
        2.22736         2.05394         0.76328 
        2.23349         2.04825        0.758158 
        2.23962         2.03567        0.753079 
        2.24577         2.02985        0.748043 
         2.2519         2.01935         0.74306 
        2.25802         2.01344        0.738131 
        2.26417         2.00514        0.733233 
        2.27031         1.99464        0.728374 
        2.27644         1.98735        0.723574 
        2.28257         1.97621        0.718818 
        2.28872         1.97078        0.714095 
        2.29486         1.95997        0.709416 
        2.30099         1.95126        0.704789 
        2.30712         1.94147          0.7002 
        2.31326         1.93698        0.695645 
         2.3194         1.92819        0.691134 
        2.32553         1.92092         0.68667 
        2.33166         1.91212        0.682247 
         2.3378         1.90425        0.677857 
        2.34394         1.89553        0.673505 
        2.35007         1.88744        0.669197 
        2.35619         1.88324        0.664932 
        2.36233         1.87267        0.660694 
        2.36848         1.86496        0.656484 
        2.37462          1.8593         0.65232 
        2.38075         1.84969        0.648196 
        2.38689         1.84476        0.644104 
        2.39303         1.83518        0.640048 
        2.39916         1.82849        0.636031 
        2.40529         1.82122        0.632049 
        2.41143         1.81228        0.628099 
        2.41757         1.80581         0.62418 
         2.4237         1.80146        0.620302 
        2.42983         1.78816        0.616457 
        2.43598         1.78825        0.612635 
        2.44211         1.77728        0.608851 
        2.44823         1.77222        0.605108 
        2.45437         1.76421        0.601386 
        2.46052         1.75895        0.597692 
        2.46665         1.75141        0.594036 
        2.47279          1.7432        0.590412 
        2.47892         1.73756        0.586816 
        2.48507         1.73172        0.583246 
         2.4912         1.72053        0.579713 
