# k  (h/Mpc)    P(k)  (Mpc/h)^3    P_linear(k)  (Mpc/h)^3
     0.00783031         1017.74         1034.95 
       0.013688         1262.77         1272.83 
       0.019231         1275.56         1282.66 
      0.0249154         1167.32         1179.31 
      0.0312784         1009.79         1015.02 
      0.0375637         859.308         860.682 
      0.0433917         744.406         748.278 
      0.0492413         666.357         668.087 
      0.0555754         604.582           609.5 
      0.0619321         566.623         566.396 
       0.067871         524.989         528.837 
      0.0738098         483.585         487.327 
      0.0800417             434         438.397 
      0.0862327         385.691         387.955 
      0.0921407         342.168         343.191 
      0.0982031         303.286         304.834 
       0.104506         275.869         274.968 
       0.110769         255.147         254.586 
       0.116806          240.23          241.13 
       0.122832          230.54         230.541 
       0.129052         218.257          219.56 
       0.135211         205.497          206.77 
       0.141259          191.93         192.081 
       0.147318         176.994         176.257 
       0.153489         160.959         160.631 
       0.159709         147.657           146.9 
       0.165845         138.076         136.156 
       0.171974         129.062         128.215 
       0.178125          123.48         122.418 
       0.184229          119.12         117.852 
        0.19034         113.544         113.498 
       0.196428         109.558         108.687 
       0.202534         104.852         103.132 
       0.208729         98.2353         96.9322 
       0.214876         91.6572         90.6829 
       0.220989         86.7821         84.8819 
       0.227147         81.0601         79.8353 
        0.23329          77.053         75.7398 
       0.239377         74.1181         72.5159 
       0.245482         70.8245         69.8667 
       0.251667         69.0767         67.4636 
       0.257832         66.5603         65.0651 
       0.263955         64.0331         62.5177 
       0.270079         61.3575         59.7824 
        0.27624         59.0275          56.932 
       0.282372         56.2911         54.1527 
        0.28843         53.5173         51.6044 
       0.294538         51.2385          49.329 
       0.300721         49.6601         47.3472 
        0.30691         47.5478         45.6393 
       0.313033         46.0799          44.135 
       0.319153         44.1181         42.7172 
       0.325316         43.3508         41.2986 
        0.33145           41.74         39.8559 
       0.337538         40.3905         38.3955 
       0.343633         38.8131         36.9373 
       0.349808         37.5427         35.5091 
       0.355968         36.2571          34.177 
       0.362074          34.995         32.9684 
       0.368217         33.9202         31.8697 
       0.374374         32.7939         30.8657 
       0.380519         31.9713          29.933 
       0.386598         31.1184         29.0505 
       0.392688         30.3708         28.1821 
        0.39888         29.4174         27.3067 
       0.405048         28.6259         26.4433 
       0.411186         27.8389          25.601 
       0.417313         26.8786         24.7916 
       0.423458         26.1531         24.0224 
       0.429607         25.3757          23.299 
       0.435692         24.6306         22.6304 
       0.441815         24.0869          21.998 
       0.447964          23.631         21.3937 
       0.454126         22.7822         20.8107 
       0.460267          22.304         20.2464 
       0.466387         21.6149         19.6961 
        0.47254          21.213         19.1546 
       0.478662         20.7703         18.6314 
       0.484765         20.1382         18.1286 
       0.490885         19.6473          17.645 
       0.497035         19.3623         17.1805 
       0.503198         18.8306         16.7374 
       0.509342         18.3666         16.3157 
       0.515458          17.933         15.9124 
       0.521598         17.5804         15.5207 
       0.527764         17.1538         15.1388 
       0.533884          16.854         14.7707 
           0.54         16.4629         14.4134 
       0.546137         16.1463         14.0651 
       0.552299         15.8358         13.7264 
       0.558452         15.3548         13.3998 
       0.564573          15.131         13.0868 
       0.570708         14.8301          12.785 
       0.576825         14.4463         12.4948 
       0.582926         14.1911          12.215 
       0.589034         13.7979         11.9432 
       0.595184         13.5877         11.6774 
       0.601379         13.2948         11.4174 
       0.607522         13.0925         11.1671 
       0.613639         12.9128         10.9252 
       0.619772         12.5612           10.69 
       0.625918         12.4424         10.4613 
       0.632068         12.2352         10.2394 
       0.638161         11.9391          10.026 
         0.6443         11.6944         9.81742 
       0.650464         11.4575         9.61421 
       0.656582          11.355         9.41839 
       0.662703         11.1399         9.22811 
       0.668861         10.9379         9.04207 
       0.675024          10.716         8.86106 
       0.681124         10.5253          8.6868 
       0.687237         10.3656         8.51683 
       0.693381         10.2184         8.35059 
       0.699536         9.94166          8.1885 
       0.705665         9.83251         8.03141 
       0.711789          9.6641         7.87863 
       0.717957         9.50008         7.72883 
        0.72409         9.33848         7.58383 
       0.730186          9.2065         7.44349 
       0.736317          9.1065         7.30601 
       0.742472         8.95726         7.17154 
       0.748622         8.80495         7.04063 
        0.75476          8.6232         6.91331 
       0.760888         8.51366         6.78936 
       0.767043         8.40913         6.66798 
       0.773185         8.23569         6.54984 
       0.779291         8.16442         6.43526 
       0.785407         8.03125         6.32327 
       0.791564          7.9062         6.21326 
       0.797719         7.76925         6.10595 
       0.803834         7.70746         6.00187 
       0.809972         7.61682         5.89987 
       0.816124         7.45799         5.80004 
       0.822261         7.33958          5.7028 
       0.828378          7.2508          5.6081 
       0.834502         7.18727         5.51549 
       0.840667         7.04755         5.42439 
       0.846816         6.93079         5.33562 
       0.852925         6.87057         5.24942 
       0.859047         6.77787         5.16495 
       0.865192         6.70931         5.08209 
       0.871341         6.63179           5.001 
       0.877463         6.52788         4.92206 
       0.883569         6.41886         4.84504 
       0.889708          6.3178         4.76929 
       0.895864         6.25744         4.69497 
       0.902008         6.17953          4.6224 
       0.908149         6.11308         4.55143 
       0.914301         6.01517         4.48184 
       0.920448         5.93255         4.41378 
       0.926574         5.85483         4.34738 
       0.932687         5.79734         4.28251 
       0.938823         5.72328         4.21873 
       0.944975         5.64752         4.15611 
       0.951105         5.58982           4.095 
       0.957225         5.55925         4.03524 
       0.963368         5.47746         3.97647 
       0.969511         5.40604         3.91888 
       0.975621         5.33296         3.86274 
       0.981748         5.27957         3.80757 
       0.987916         5.22221         3.75313 
        0.99406         5.13525         3.69997 
        1.00019         5.07174         3.64796 
        1.00632         5.03988         3.59699 
        1.01246         4.98123         3.54693 
        1.01859         4.91611         3.49792 
        1.02471         4.86392         3.44989 
        1.03085         4.80992         3.40261 
        1.03698         4.74589         3.35632 
        1.04314         4.70774          3.3107 
        1.04929         4.64709         3.26605 
        1.05541         4.59373          3.2224 
        1.06154         4.55227         3.17944 
        1.06769          4.5228         3.13721 
        1.07382         4.45023         3.09589 
        1.07993         4.39799         3.05541 
        1.08607         4.37396         3.01549 
        1.09222         4.32127         2.97625 
        1.09836         4.28114         2.93775 
        1.10449         4.23469         2.89999 
        1.11063         4.18697         2.86285 
        1.11677          4.1521         2.82638 
         1.1229         4.10998         2.79061 
        1.12903         4.06027         2.75543 
        1.13518         4.02323         2.72083 
        1.14131         3.96999         2.68685 
        1.14745         3.91944         2.65347 
        1.15359         3.89971         2.62066 
        1.15973         3.85091         2.58839 
        1.16584         3.81867         2.55681 
        1.17197         3.78207         2.52572 
        1.17811         3.75375         2.49505 
        1.18424         3.72117         2.46498 
        1.19038         3.68887         2.43532 
        1.19652         3.65013         2.40617 
        1.20267         3.61391         2.37749 
        1.20881          3.5817         2.34929 
        1.21495         3.55101         2.32159 
        1.22108         3.51584         2.29435 
         1.2272         3.49426         2.26761 
        1.23334         3.44786         2.24123 
        1.23949         3.41365         2.21522 
        1.24562          3.3958         2.18969 
        1.25174         3.35392          2.1646 
        1.25789         3.33036         2.13984 
        1.26402         3.29586         2.11551 
        1.27014         3.26586         2.09161 
        1.27628         3.24674         2.06802 
        1.28244         3.20469         2.04475 
        1.28858         3.18862         2.02187 
        1.29471         3.15225         1.99939 
        1.30084         3.12209         1.97728 
        1.30697         3.11498         1.95547 
        1.31312         3.05922         1.93396 
        1.31925          3.0465         1.91284 
        1.32537         3.01888         1.89206 
        1.33151         3.00231         1.87151 
        1.33765         2.96297         1.85129 
        1.34378         2.94211          1.8314 
        1.34992         2.92953         1.81179 
        1.35606         2.88688         1.79243 
         1.3622         2.87656         1.77339 
        1.36833         2.85023         1.75467 
        1.37445         2.82502         1.73623 
        1.38059         2.81071         1.71799 
        1.38675         2.79315         1.69998 
        1.39288         2.76188          1.6823 
        1.39901         2.73431         1.66488 
        1.40515         2.71542         1.64767 
         1.4113         2.69689         1.63071 
        1.41742         2.67705         1.61405 
        1.42355         2.65919          1.5976 
         1.4297         2.63065         1.58133 
        1.43585         2.61875         1.56529 
        1.44198         2.60239         1.54953 
        1.44809          2.5719         1.53403 
        1.45423         2.55257         1.51868 
        1.46036         2.53158         1.50356 
        1.46649         2.51302         1.48865 
        1.47263         2.49299         1.47393 
        1.47877         2.47023         1.45942 
        1.48491          2.4538         1.44508 
        1.49104         2.44057         1.43096 
        1.49718         2.42306         1.41702 
        1.50333         2.40401         1.40325 
        1.50947         2.38771         1.38969 
         1.5156          2.3687         1.37632 
        1.52172         2.35216         1.36314 
        1.52787         2.33475          1.3501 
          1.534         2.31783         1.33724 
        1.54013         2.30167         1.32457 
        1.54627         2.28074         1.31204 
        1.55241         2.26375         1.29967 
        1.55855         2.25309         1.28748 
        1.56467         2.23812         1.27547 
         1.5708         2.21586         1.26359 
        1.57695         2.20324         1.25184 
        1.58308         2.18694         1.24027 
        1.58922         2.17566         1.22884 
        1.59535         2.15965         1.21755 
         1.6015         2.14453          1.2064 
        1.60764         2.13179         1.19538 
        1.61376         2.11812         1.18454 
        1.61989         2.10085         1.17382 
        1.62604         2.08491         1.16322 
        1.63218         2.07912         1.15275 
        1.63831         2.05716         1.14243 
        1.64444         2.04343         1.13224 
        1.65059         2.03377         1.12214 
        1.65673         2.01928         1.11219 
        1.66285         2.00361         1.10238 
        1.66898         1.99394         1.09268 
        1.67512         1.97559         1.08309 
        1.68127         1.96398          1.0736 
         1.6874          1.9575         1.06424 
        1.69353         1.93416         1.05501 
        1.69967         1.92401         1.04586 
        1.70581         1.91947         1.03682 
        1.71193         1.90234         1.02792 
        1.71806         1.89459         1.01911 
        1.72421           1.881         1.01039 
        1.73035         1.86808         1.00178 
        1.73649         1.85602        0.993269 
        1.74262         1.84443        0.984866 
        1.74876          1.8364        0.976554 
        1.75489         1.81875        0.968356 
        1.76101         1.80834        0.960255 
        1.76715         1.79929        0.952235 
        1.77329         1.78968        0.944298 
        1.77943         1.77379        0.936447 
        1.78557         1.76479        0.928698 
        1.79171         1.75897        0.921036 
        1.79785         1.74306        0.913459 
        1.80399         1.73444        0.905969 
        1.81012         1.72715        0.898573 
        1.81625         1.71323        0.891263 
        1.82239          1.7022        0.884024 
        1.82853         1.68779        0.876869 
        1.83466         1.68392        0.869801 
        1.84078         1.67254        0.862818 
        1.84692         1.66523        0.855901 
        1.85306          1.6519        0.849051 
         1.8592         1.64343        0.842287 
        1.86533         1.63277        0.835601 
        1.87147         1.62645         0.82898 
        1.87761         1.61572        0.822427 
        1.88375         1.60282        0.815954 
        1.88988          1.5979        0.809557 
        1.89601         1.58669        0.803225 
        1.90215         1.57472        0.796956 
        1.90829         1.56537        0.790757 
        1.91442         1.56009        0.784623 
        1.92056         1.55036        0.778561 
         1.9267         1.54185        0.772555 
        1.93284         1.53655         0.76661 
        1.93897         1.52591        0.760739 
        1.94509         1.51588        0.754942 
        1.95123         1.50562        0.749191 
        1.95737         1.49855        0.743495 
        1.96349         1.49057        0.737874 
        1.96964         1.48462        0.732294 
        1.97578         1.47456         0.72677 
        1.98192         1.46756        0.721315 
        1.98805          1.4575        0.715914 
        1.99419         1.45289        0.710569 
        2.00033         1.44818        0.705276 
        2.00647          1.4348        0.700039 
         2.0126         1.42992        0.694864 
        2.01874         1.41958        0.689733 
        2.02488         1.41473         0.68465 
        2.03101         1.40279        0.679627 
        2.03714         1.39512         0.67466 
        2.04328         1.39166        0.669737 
        2.04941         1.38085        0.664867 
        2.05554         1.37596        0.660049 
        2.06167          1.3672        0.655273 
        2.06781         1.36266        0.650543 
        2.07396         1.35398        0.645853 
        2.08009         1.34729        0.641218 
        2.08622         1.33847        0.636633 
        2.09237         1.33488        0.632085 
        2.09851         1.32689         0.62758 
        2.10464         1.32285        0.623127 
        2.11077         1.31348        0.618722 
        2.11691         1.30563         0.61435 
        2.12305         1.30137         0.61002 
        2.12918         1.29401        0.605743 
        2.13531         1.28779        0.601506 
        2.14145         1.28001        0.597299 
         2.1476         1.27245        0.593129 
        2.15372          1.2672        0.589018 
        2.15985          1.2599        0.584943 
        2.16599         1.25489        0.580895 
        2.17213         1.24705        0.576889 
        2.17827         1.24326        0.572922 
         2.1844         1.23779        0.568996 
        2.19054         1.23306        0.565106 
        2.19666         1.22526        0.561257 
         2.2028         1.21895        0.557441 
        2.20893          1.2127        0.553658 
        2.21508         1.20935        0.549907 
        2.22122         1.19841        0.546189 
        2.22736         1.19377        0.542513 
        2.23349         1.19263        0.538872 
        2.23962         1.18315        0.535263 
        2.24577         1.17836        0.531683 
         2.2519         1.17116        0.528142 
        2.25802         1.16846        0.524638 
        2.26417           1.161        0.521156 
        2.27031         1.15698        0.517703 
        2.27644         1.15099        0.514292 
        2.28257         1.14602        0.510911 
        2.28872         1.13985        0.507554 
        2.29486         1.13528        0.504229 
        2.30099          1.1287         0.50094 
        2.30712         1.12357        0.497678 
        2.31326         1.12125        0.494441 
         2.3194         1.11515        0.491234 
        2.32553         1.11081        0.488061 
        2.33166         1.10313        0.484918 
         2.3378          1.0978        0.481798 
        2.34394         1.09246        0.478704 
        2.35007         1.08787        0.475642 
        2.35619         1.08586        0.472611 
        2.36233         1.07776        0.469598 
        2.36848         1.07413        0.466606 
        2.37462         1.06925        0.463647 
        2.38075         1.06514        0.460715 
        2.38689         1.06033        0.457807 
        2.39303         1.05563        0.454924 
        2.39916         1.04963        0.452069 
        2.40529         1.04681        0.449239 
        2.41143         1.04131        0.446431 
        2.41757         1.03684        0.443646 
         2.4237         1.03416        0.440889 
        2.42983         1.02768        0.438157 
        2.43598         1.02471         0.43544 
        2.44211         1.02001        0.432751 
        2.44823         1.01495         0.43009 
        2.45437         1.01121        0.427445 
        2.46052         1.00808        0.424819 
        2.46665         1.00296        0.422221 
        2.47279         0.99835        0.419645 
        2.47892        0.992938        0.417089 
        2.48507        0.990097        0.414551 
         2.4912        0.985051         0.41204 
