# k  (h/Mpc)    P(k)  (Mpc/h)^3    P_linear(k)  (Mpc/h)^3
     0.00783031         16570.4         16814.9 
       0.013688         20845.5         20653.5 
       0.019231         20829.8         20799.7 
      0.0249154         18687.8         19116.3 
      0.0312784         16238.4         16448.7 
      0.0375637         13923.9           13945 
      0.0433917         11878.9         12122.3 
      0.0492413         10721.3         10822.3 
      0.0555754          9529.6         9872.48 
      0.0619321         9154.65         9173.78 
       0.067871         8282.61         8565.08 
      0.0738098         7636.27         7892.51 
      0.0800417         6795.48         7099.85 
      0.0862327         6114.81         6282.79 
      0.0921407         5536.52         5557.76 
      0.0982031         4909.23          4936.5 
       0.104506            4588         4452.79 
       0.110769         4242.19         4122.66 
       0.116806         4002.67         3904.72 
       0.122832         3821.44         3733.21 
       0.129052         3551.98         3555.38 
       0.135211         3363.23         3348.24 
       0.141259         3205.72         3110.35 
       0.147318         3002.83          2854.1 
       0.153489         2737.07         2601.05 
       0.159709         2577.45          2378.7 
       0.165845         2474.99         2204.72 
       0.171974          2339.5         2076.13 
       0.178125         2228.89         1982.25 
       0.184229          2134.7         1908.32 
        0.19034         2023.64         1837.81 
       0.196428         1981.19         1759.89 
       0.202534         1902.91         1669.94 
       0.208729         1812.76         1569.55 
       0.214876         1735.55         1468.36 
       0.220989         1672.33         1374.43 
       0.227147         1601.46         1292.71 
        0.23329         1537.72         1226.39 
       0.239377         1513.37         1174.19 
       0.245482         1420.38         1131.29 
       0.251667         1413.14         1092.38 
       0.257832         1357.32         1053.54 
       0.263955         1312.33         1012.29 
       0.270079         1266.63         967.998 
        0.27624         1251.51         921.844 
       0.282372         1199.37          876.84 
        0.28843         1190.98         835.577 
       0.294538         1131.54         798.733 
       0.300721         1124.67         766.643 
        0.30691         1081.12         738.989 
       0.313033          1059.8          714.63 
       0.319153         1041.22         691.673 
       0.325316         1007.55         668.702 
        0.33145         984.736         645.343 
       0.337538         967.087         621.696 
       0.343633         945.667         598.085 
       0.349808         913.324         574.958 
       0.355968         906.954          553.39 
       0.362074             898         533.819 
       0.368217         869.712         516.029 
       0.374374         836.913         499.772 
       0.380519          838.17          484.67 
       0.386598          814.15          470.38 
       0.392688         811.369         456.319 
        0.39888         787.647         442.145 
       0.405048         777.501         428.165 
       0.411186         766.691         414.526 
       0.417313           750.6         401.421 
       0.423458         737.096         388.966 
       0.429607         727.999         377.253 
       0.435692         712.289         366.426 
       0.441815         706.094         356.186 
       0.447964         691.682         346.402 
       0.454126         684.867         336.962 
       0.460267         668.122         327.825 
       0.466387         660.328         318.914 
        0.47254          655.39         310.147 
       0.478662         649.178         301.675 
       0.484765         629.454         293.534 
       0.490885         625.411         285.703 
       0.497035         612.738         278.182 
       0.503198         608.605         271.007 
       0.509342         602.671          264.18 
       0.515458         598.756         257.649 
       0.521598         583.541         251.307 
       0.527764         573.621         245.123 
       0.533884         571.436         239.163 
           0.54         565.124         233.378 
       0.546137         560.885         227.739 
       0.552299         552.677         222.254 
       0.558452         548.835         216.965 
       0.564573          541.83         211.898 
       0.570708         535.288         207.011 
       0.576825         521.242         202.313 
       0.582926         522.802         197.781 
       0.589034         517.779         193.381 
       0.595184         513.311         189.076 
       0.601379          505.56         184.866 
       0.607522          498.55         180.814 
       0.613639         498.159         176.898 
       0.619772         487.721         173.089 
       0.625918         485.295         169.387 
       0.632068         478.329         165.793 
       0.638161         476.498         162.338 
         0.6443         468.487         158.961 
       0.650464         466.195          155.67 
       0.656582         462.214           152.5 
       0.662703         460.801         149.419 
       0.668861         453.061         146.406 
       0.675024         449.453         143.475 
       0.681124         446.017         140.654 
       0.687237         442.297         137.902 
       0.693381         436.302          135.21 
       0.699536         430.033         132.585 
       0.705665         428.934         130.042 
       0.711789         426.898         127.568 
       0.717957          422.96         125.143 
        0.72409         420.571         122.795 
       0.730186          414.58         120.523 
       0.736317         411.643         118.296 
       0.742472         409.436         116.119 
       0.748622         404.982             114 
        0.75476         399.562         111.938 
       0.760888         395.819         109.931 
       0.767043         396.223         107.966 
       0.773185         392.033         106.053 
       0.779291         387.239         104.197 
       0.785407         385.402         102.384 
       0.791564         380.847         100.603 
       0.797719          378.81         98.8655 
       0.803834         374.622         97.1803 
       0.809972          373.97         95.5287 
       0.816124         372.796         93.9122 
       0.822261         367.837         92.3377 
       0.828378         365.588         90.8044 
       0.834502         361.701         89.3049 
       0.840667         359.082         87.8298 
       0.846816         357.587         86.3925 
       0.852925         355.024         84.9967 
       0.859047         352.963         83.6291 
       0.865192         348.645         82.2873 
       0.871341         345.938         80.9744 
       0.877463         345.577         79.6962 
       0.883569          342.56         78.4491 
       0.889708         339.704         77.2226 
       0.895864         338.308         76.0192 
       0.902008         335.317         74.8443 
       0.908149         331.863         73.6951 
       0.914301         329.427         72.5683 
       0.920448          327.74         71.4663 
       0.926574         323.272         70.3913 
       0.932687         323.376         69.3408 
       0.938823         320.052         68.3081 
       0.944975         319.811         67.2943 
       0.951105         316.509         66.3048 
       0.957225         314.494         65.3371 
       0.963368         310.631         64.3855 
       0.969511         309.814          63.453 
       0.975621         307.636         62.5441 
       0.981748         306.314         61.6507 
       0.987916         304.556         60.7693 
        0.99406         299.944         59.9086 
        1.00019         298.935         59.0663 
        1.00632         297.699         58.2412 
        1.01246         295.138         57.4306 
        1.01859         295.674          56.637 
        1.02471         290.849         55.8594 
        1.03085         289.617         55.0938 
        1.03698         288.421         54.3443 
        1.04314         285.737         53.6057 
        1.04929         283.395         52.8826 
        1.05541         284.165         52.1758 
        1.06154         279.296         51.4804 
        1.06769         278.803         50.7966 
        1.07382         276.675         50.1275 
        1.07993         275.105         49.4721 
        1.08607         274.375         48.8257 
        1.09222         271.575         48.1903 
        1.09836         269.838          47.567 
        1.10449         267.484         46.9555 
        1.11063         265.069         46.3542 
        1.11677         264.973         45.7636 
         1.1229         262.787         45.1844 
        1.12903         261.359         44.6148 
        1.13518         259.243         44.0546 
        1.14131           257.6         43.5044 
        1.14745         257.006          42.964 
        1.15359         254.884         42.4327 
        1.15973         253.063         41.9102 
        1.16584         251.332         41.3989 
        1.17197          251.45         40.8954 
        1.17811         248.097         40.3988 
        1.18424         246.642          39.912 
        1.19038         246.069         39.4318 
        1.19652         243.882         38.9597 
        1.20267         243.395         38.4954 
        1.20881         241.335         38.0388 
        1.21495         239.704         37.5903 
        1.22108         238.303         37.1492 
         1.2272         236.871         36.7162 
        1.23334         235.874         36.2892 
        1.23949         233.766         35.8679 
        1.24562         232.999         35.4546 
        1.25174          231.55         35.0484 
        1.25789         229.794         34.6474 
        1.26402          227.78         34.2534 
        1.27014         226.638         33.8666 
        1.27628         225.395         33.4846 
        1.28244         225.269         33.1078 
        1.28858         222.855         32.7373 
        1.29471         221.554         32.3734 
        1.30084         220.118         32.0153 
        1.30697         218.882         31.6622 
        1.31312         216.872         31.3139 
        1.31925         216.003         30.9719 
        1.32537          215.46         30.6355 
        1.33151         213.377         30.3028 
        1.33765         211.844         29.9753 
        1.34378         211.234         29.6533 
        1.34992         210.056         29.3358 
        1.35606         209.863         29.0223 
         1.3622         207.656          28.714 
        1.36833         205.952         28.4108 
        1.37445         205.215         28.1123 
        1.38059          203.48         27.8171 
        1.38675         202.786         27.5254 
        1.39288         201.679         27.2392 
        1.39901         200.855         26.9571 
        1.40515         199.096         26.6784 
         1.4113         198.174         26.4038 
        1.41742         196.667         26.1341 
        1.42355         195.789         25.8677 
         1.4297         194.106         25.6042 
        1.43585         193.354         25.3445 
        1.44198         192.557         25.0894 
        1.44809         191.366         24.8383 
        1.45423         190.469         24.5898 
        1.46036          189.13         24.3451 
        1.46649         187.885         24.1037 
        1.47263         186.834         23.8653 
        1.47877         185.534         23.6303 
        1.48491         183.951         23.3981 
        1.49104         183.665         23.1695 
        1.49718         181.964         22.9439 
        1.50333         181.348         22.7208 
        1.50947         180.217         22.5012 
         1.5156         178.903         22.2848 
        1.52172         178.277         22.0713 
        1.52787         176.571         21.8602 
          1.534         176.345         21.6521 
        1.54013         174.991         21.4469 
        1.54627         173.926          21.244 
        1.55241         172.861         21.0437 
        1.55855         171.789         20.8463 
        1.56467         170.628         20.6519 
         1.5708          169.93         20.4595 
        1.57695         169.216         20.2693 
        1.58308         168.127         20.0819 
        1.58922         167.086         19.8968 
        1.59535         165.716         19.7141 
         1.6015         165.219         19.5335 
        1.60764         164.185         19.3552 
        1.61376         163.297         19.1796 
        1.61989         162.443         19.0061 
        1.62604         161.216         18.8343 
        1.63218         160.665         18.6648 
        1.63831         159.412         18.4978 
        1.64444         158.716         18.3327 
        1.65059          157.77         18.1693 
        1.65673         156.674          18.008 
        1.66285         155.855         17.8492 
        1.66898         154.879         17.6922 
        1.67512          154.52         17.5369 
        1.68127         153.043         17.3832 
         1.6874         152.269         17.2318 
        1.69353          151.48         17.0822 
        1.69967          150.39         16.9341 
        1.70581         149.781         16.7877 
        1.71193         148.772         16.6437 
        1.71806         148.155         16.5011 
        1.72421         147.266         16.3598 
        1.73035         146.754         16.2204 
        1.73649          145.78         16.0826 
        1.74262          144.81         15.9465 
        1.74876         143.975         15.8119 
        1.75489         143.237         15.6792 
        1.76101         142.012          15.548 
        1.76715         141.838         15.4182 
        1.77329         140.969         15.2897 
        1.77943           140.2         15.1625 
        1.78557          139.51         15.0371 
        1.79171         138.672          14.913 
        1.79785         137.763         14.7903 
        1.80399         136.994         14.6691 
        1.81012         136.277         14.5493 
        1.81625         135.768         14.4309 
        1.82239         134.869         14.3137 
        1.82853         134.209         14.1979 
        1.83466         133.336         14.0834 
        1.84078         132.715         13.9704 
        1.84692         131.521         13.8584 
        1.85306         131.407         13.7475 
         1.8592         130.444         13.6379 
        1.86533         129.767         13.5297 
        1.87147          128.75         13.4225 
        1.87761         128.017         13.3164 
        1.88375         127.328         13.2116 
        1.88988         126.533          13.108 
        1.89601         126.134         13.0055 
        1.90215         125.318          12.904 
        1.90829         124.635         12.8036 
        1.91442         124.096         12.7043 
        1.92056         123.265         12.6061 
         1.9267         122.743         12.5089 
        1.93284         121.846         12.4126 
        1.93897          121.31         12.3175 
        1.94509         120.772         12.2237 
        1.95123         120.153         12.1306 
        1.95737         119.478         12.0383 
        1.96349         118.821         11.9473 
        1.96964         117.839          11.857 
        1.97578         117.178         11.7675 
        1.98192         116.806         11.6792 
        1.98805          116.12         11.5918 
        1.99419         115.501         11.5052 
        2.00033         114.804         11.4195 
        2.00647         114.358         11.3347 
         2.0126         113.405         11.2509 
        2.01874         112.865         11.1678 
        2.02488         112.588         11.0855 
        2.03101         111.563         11.0042 
        2.03714         111.153         10.9238 
        2.04328         110.427         10.8441 
        2.04941         109.894         10.7652 
        2.05554         109.197         10.6872 
        2.06167         108.868         10.6099 
        2.06781         108.035         10.5333 
        2.07396         107.605         10.4574 
        2.08009         106.989         10.3823 
        2.08622         106.252         10.3081 
        2.09237         105.845         10.2344 
        2.09851         105.251         10.1615 
        2.10464         104.805         10.0894 
        2.11077         104.168         10.0181 
        2.11691         103.723         9.94727 
        2.12305         103.025         9.87717 
        2.12918         102.351         9.80791 
        2.13531         101.856          9.7393 
        2.14145         101.216          9.6712 
         2.1476         100.591         9.60366 
        2.15372         100.294         9.53711 
        2.15985         99.7666         9.47113 
        2.16599         99.0371         9.40558 
        2.17213         98.6442         9.34072 
        2.17827         98.1215         9.27649 
         2.1844         97.3825         9.21292 
        2.19054         97.0963         9.14992 
        2.19666         96.6357         9.08761 
         2.2028         95.9632         9.02582 
        2.20893         95.6204         8.96458 
        2.21508         95.0337         8.90383 
        2.22122         94.5131         8.84363 
        2.22736         93.9833         8.78412 
        2.23349         93.6026         8.72516 
        2.23962         93.1218         8.66672 
        2.24577         92.5545         8.60876 
         2.2519         92.2534         8.55142 
        2.25802         91.4183         8.49469 
        2.26417         91.1571         8.43832 
        2.27031            90.6          8.3824 
        2.27644         90.0917         8.32716 
        2.28257         89.5457         8.27243 
        2.28872         89.3382         8.21808 
        2.29486         88.6312         8.16423 
        2.30099         88.1403         8.11097 
        2.30712          87.796         8.05817 
        2.31326         87.2567         8.00575 
         2.3194         86.7915         7.95383 
        2.32553          86.455         7.90245 
        2.33166         85.9806         7.85155 
         2.3378          85.472         7.80103 
        2.34394         85.0705         7.75094 
        2.35007         84.6343         7.70136 
        2.35619         84.2596         7.65228 
        2.36233         83.6995         7.60351 
        2.36848         83.2194         7.55506 
        2.37462          82.861         7.50714 
        2.38075         82.3746         7.45968 
        2.38689         81.9564         7.41259 
        2.39303         81.4108         7.36591 
        2.39916         81.1775         7.31969 
        2.40529         80.8689         7.27386 
        2.41143         80.2052         7.22839 
        2.41757         79.9346         7.18329 
         2.4237         79.5242         7.13866 
        2.42983         79.0282         7.09442 
        2.43598         78.5542         7.05043 
        2.44211          78.456         7.00689 
        2.44823         77.8887         6.96381 
        2.45437         77.2724         6.92097 
        2.46052         76.9548         6.87847 
        2.46665          76.735         6.83639 
        2.47279         76.1686         6.79468 
        2.47892         75.8592         6.75329 
        2.48507         75.4699         6.71221 
         2.4912         75.1423         6.67155 
