# k  (h/Mpc)    Pcb(k)  (Mpc/h)^3    Pcb_linear(k)  (Mpc/h)^3
     0.00783031           16655         16902.1 
       0.013688         20981.6           20788 
       0.019231         20979.8         20948.9 
      0.0249154         18829.7         19261.2 
      0.0312784         16366.5         16578.1 
      0.0375637         14036.6         14057.3 
      0.0433917         11976.4         12221.5 
      0.0492413         10810.4         10911.8 
      0.0555754         9609.46          9954.9 
      0.0619321         9231.95          9250.9 
       0.067871         8352.88         8637.47 
      0.0738098         7701.34         7959.49 
      0.0800417         6853.59         7160.32 
      0.0862327         6167.27         6336.46 
      0.0921407         5584.15         5605.34 
      0.0982031         4951.54         4978.85 
       0.104506         4627.63         4491.06 
       0.110769         4278.88         4158.15 
       0.116806         4037.34         3938.37 
       0.122832         3854.57         3765.42 
       0.129052          3582.8         3586.08 
       0.135211         3392.44         3377.18 
       0.141259         3233.59         3137.26 
       0.147318         3028.96         2878.81 
       0.153489          2760.9         2623.59 
       0.159709          2599.9         2399.32 
       0.165845         2496.57         2223.84 
       0.171974          2359.9         2094.14 
       0.178125         2248.33         1999.45 
       0.184229         2153.32         1924.89 
        0.19034         2041.31         1853.77 
       0.196428         1998.49         1775.18 
       0.202534         1919.53         1684.45 
       0.208729         1828.59          1583.2 
       0.214876         1750.72         1481.13 
       0.220989         1686.95         1386.38 
       0.227147         1615.46         1303.95 
        0.23329         1551.17         1237.06 
       0.239377          1526.6          1184.4 
       0.245482          1432.8         1141.13 
       0.251667          1425.5         1101.88 
       0.257832         1369.19         1062.71 
       0.263955         1323.81         1021.11 
       0.270079         1277.71         976.427 
        0.27624         1262.46         929.873 
       0.282372         1209.86         884.478 
        0.28843          1201.4         842.856 
       0.294538         1141.45         805.691 
       0.300721         1134.51         773.321 
        0.30691         1090.59          745.43 
       0.313033         1069.07         720.859 
       0.319153         1050.33           697.7 
       0.325316         1016.37          674.53 
        0.33145         993.358         650.971 
       0.337538         975.554         627.116 
       0.343633         953.946         603.299 
       0.349808         921.321         579.973 
       0.355968         914.895         558.215 
       0.362074         905.863         538.473 
       0.368217         877.328         520.528 
       0.374374         844.241         504.131 
       0.380519          845.51         488.896 
       0.386598          821.28         474.483 
       0.392688         818.474         460.299 
        0.39888         794.544         446.001 
       0.405048          784.31           431.9 
       0.411186         773.406         418.142 
       0.417313         757.173         404.924 
       0.423458         743.551         392.359 
       0.429607         734.374         380.545 
       0.435692         718.527         369.622 
       0.441815         712.277         359.294 
       0.447964         697.739         349.424 
       0.454126         690.865         339.902 
       0.460267         673.973         330.686 
       0.466387         666.111         321.696 
        0.47254          661.13         312.853 
       0.478662         654.863         304.308 
       0.484765         634.966         296.095 
       0.490885         630.888         288.196 
       0.497035         618.104          280.61 
       0.503198         613.935         273.372 
       0.509342         607.949         266.485 
       0.515458             604         259.897 
       0.521598         588.652           253.5 
       0.527764         578.645         247.263 
       0.533884         576.441         241.251 
           0.54         570.073         235.414 
       0.546137         565.797         229.727 
       0.552299         557.517         224.193 
       0.558452         553.641         218.859 
       0.564573         546.575         213.748 
       0.570708         539.976         208.818 
       0.576825         525.807         204.079 
       0.582926          527.38         199.508 
       0.589034         522.314         195.068 
       0.595184         517.806         190.727 
       0.601379         509.988          186.48 
       0.607522         502.917         182.392 
       0.613639         502.522         178.442 
       0.619772         491.992           174.6 
       0.625918         489.545         170.865 
       0.632068         482.519          167.24 
       0.638161         480.671         163.755 
         0.6443          472.59         160.348 
       0.650464         470.278         157.029 
       0.656582         466.262         153.831 
       0.662703         464.837         150.723 
       0.668861         457.029         147.685 
       0.675024          453.39         144.728 
       0.681124         449.924         141.882 
       0.687237         446.171         139.106 
       0.693381         440.123         136.391 
       0.699536         433.799         133.743 
       0.705665          432.69         131.177 
       0.711789         430.637         128.682 
       0.717957         426.664         126.235 
        0.72409         424.254         123.867 
       0.730186         418.211         121.575 
       0.736317         415.248         119.329 
       0.742472         413.022         117.133 
       0.748622         408.529         114.995 
        0.75476         403.062         112.915 
       0.760888         399.285         110.891 
       0.767043         399.694         108.908 
       0.773185         395.467         106.979 
       0.779291         390.631         105.107 
       0.785407         388.777         103.278 
       0.791564         384.182         101.481 
       0.797719         382.128         99.7287 
       0.803834         377.903         98.0288 
       0.809972         377.246         96.3628 
       0.816124         376.061         94.7322 
       0.822261         371.059          93.144 
       0.828378          368.79         91.5973 
       0.834502         364.868         90.0847 
       0.840667         362.227         88.5967 
       0.846816         360.718         87.1469 
       0.852925         358.133         85.7389 
       0.859047         356.054         84.3593 
       0.865192         351.699         83.0059 
       0.871341         348.968         81.6814 
       0.877463         348.604         80.3921 
       0.883569         345.561         79.1342 
       0.889708         342.679         77.8969 
       0.895864         341.271         76.6831 
       0.902008         338.253         75.4979 
       0.908149          334.77         74.3386 
       0.914301         332.313          73.202 
       0.920448         330.611         72.0904 
       0.926574         326.103         71.0059 
       0.932687         326.208         69.9463 
       0.938823         322.856         68.9046 
       0.944975         322.612         67.8819 
       0.951105         319.282         66.8838 
       0.957225         317.249         65.9076 
       0.963368         313.352         64.9477 
       0.969511         312.528         64.0071 
       0.975621          310.33         63.0902 
       0.981748         308.997         62.1891 
       0.987916         307.224            61.3 
        0.99406         302.571         60.4317 
        1.00019         301.554         59.5821 
        1.00632         300.306         58.7498 
        1.01246         297.723         57.9322 
        1.01859         298.263         57.1316 
        1.02471         293.396         56.3472 
        1.03085         292.154         55.5749 
        1.03698         290.947         54.8189 
        1.04314         288.239         54.0738 
        1.04929         285.877         53.3444 
        1.05541         286.654         52.6315 
        1.06154         281.742         51.9299 
        1.06769         281.245         51.2402 
        1.07382         279.098         50.5653 
        1.07993         277.515         49.9041 
        1.08607         276.778         49.2521 
        1.09222         273.954         48.6111 
        1.09836         272.202         47.9824 
        1.10449         269.827         47.3656 
        1.11063          267.39          46.759 
        1.11677         267.294         46.1633 
         1.1229         265.088          45.579 
        1.12903         263.648         45.0045 
        1.13518         261.513         44.4394 
        1.14131         259.856         43.8844 
        1.14745         259.257         43.3392 
        1.15359         257.116         42.8032 
        1.15973         255.279         42.2762 
        1.16584         253.534         41.7604 
        1.17197         253.652         41.2526 
        1.17811          250.27         40.7516 
        1.18424         248.802         40.2605 
        1.19038         248.224         39.7762 
        1.19652         246.018            39.3 
        1.20267         245.526         38.8316 
        1.20881         243.448          38.371 
        1.21495         241.803         37.9186 
        1.22108          240.39         37.4736 
         1.2272         238.945         37.0369 
        1.23334          237.94         36.6061 
        1.23949         235.814         36.1812 
        1.24562          235.04         35.7642 
        1.25174         233.578         35.3545 
        1.25789         231.807           34.95 
        1.26402         229.775         34.5526 
        1.27014         228.623         34.1624 
        1.27628         227.369          33.777 
        1.28244         227.242         33.3969 
        1.28858         224.807         33.0232 
        1.29471         223.495         32.6561 
        1.30084         222.046         32.2949 
        1.30697         220.799         31.9387 
        1.31312         218.771         31.5873 
        1.31925         217.895         31.2424 
        1.32537         217.348          30.903 
        1.33151         215.245         30.5674 
        1.33765         213.699         30.2371 
        1.34378         213.084         29.9123 
        1.34992         211.896          29.592 
        1.35606         211.701         29.2758 
         1.3622         209.474         28.9647 
        1.36833         207.756          28.659 
        1.37445         207.013         28.3578 
        1.38059         205.262           28.06 
        1.38675         204.562         27.7658 
        1.39288         203.445         27.4771 
        1.39901         202.614         27.1925 
        1.40515          200.84         26.9114 
         1.4113          199.91         26.6344 
        1.41742         198.389         26.3624 
        1.42355         197.503         26.0936 
         1.4297         195.806         25.8278 
        1.43585         195.047         25.5659 
        1.44198         194.243         25.3086 
        1.44809         193.042         25.0553 
        1.45423         192.137         24.8046 
        1.46036         190.787         24.5577 
        1.46649         189.531         24.3142 
        1.47263         188.471         24.0738 
        1.47877         187.159         23.8367 
        1.48491         185.563         23.6025 
        1.49104         185.273         23.3719 
        1.49718         183.557         23.1442 
        1.50333         182.936         22.9193 
        1.50947         181.795         22.6977 
         1.5156          180.47         22.4795 
        1.52172         179.838         22.2641 
        1.52787         178.118         22.0511 
          1.534         177.889         21.8412 
        1.54013         176.523         21.6342 
        1.54627          175.45         21.4295 
        1.55241         174.375         21.2275 
        1.55855         173.293         21.0283 
        1.56467         172.123         20.8323 
         1.5708         171.419         20.6382 
        1.57695         170.698         20.4463 
        1.58308           169.6         20.2573 
        1.58922         168.549         20.0706 
        1.59535         167.167         19.8863 
         1.6015         166.666         19.7041 
        1.60764         165.623         19.5242 
        1.61376         164.727         19.3471 
        1.61989         163.866         19.1721 
        1.62604         162.628         18.9988 
        1.63218         162.072         18.8278 
        1.63831         160.808         18.6593 
        1.64444         160.106         18.4928 
        1.65059         159.151          18.328 
        1.65673         158.046         18.1653 
        1.66285          157.22         18.0051 
        1.66898         156.236         17.8468 
        1.67512         155.873           17.69 
        1.68127         154.384          17.535 
         1.6874         153.603         17.3823 
        1.69353         152.807         17.2314 
        1.69967         151.708          17.082 
        1.70581         151.092         16.9344 
        1.71193         150.075         16.7891 
        1.71806         149.452         16.6452 
        1.72421         148.556         16.5027 
        1.73035         148.039          16.362 
        1.73649         147.057          16.223 
        1.74262         146.079         16.0858 
        1.74876         145.236           15.95 
        1.75489         144.492         15.8161 
        1.76101         143.256         15.6838 
        1.76715          143.08         15.5528 
        1.77329         142.204         15.4232 
        1.77943         141.428          15.295 
        1.78557         140.732         15.1684 
        1.79171         139.887         15.0433 
        1.79785         138.969         14.9195 
        1.80399         138.194         14.7972 
        1.81012          137.47         14.6764 
        1.81625         136.957          14.557 
        1.82239          136.05         14.4388 
        1.82853         135.385         14.3219 
        1.83466         134.504         14.2064 
        1.84078         133.877         14.0924 
        1.84692         132.673         13.9794 
        1.85306         132.558         13.8675 
         1.8592         131.586         13.7571 
        1.86533         130.903         13.6478 
        1.87147         129.878         13.5397 
        1.87761         129.139         13.4327 
        1.88375         128.443          13.327 
        1.88988         127.641         13.2225 
        1.89601         127.239         13.1191 
        1.90215         126.415         13.0167 
        1.90829         125.727         12.9154 
        1.91442         125.183         12.8152 
        1.92056         124.344         12.7162 
         1.9267         123.818         12.6181 
        1.93284         122.913          12.521 
        1.93897         122.372         12.4251 
        1.94509         121.829         12.3304 
        1.95123         121.206         12.2365 
        1.95737         120.525         12.1435 
        1.96349         119.861         12.0517 
        1.96964         118.871         11.9605 
        1.97578         118.204         11.8703 
        1.98192         117.829         11.7812 
        1.98805         117.137          11.693 
        1.99419         116.513         11.6057 
        2.00033         115.809         11.5193 
        2.00647          115.36         11.4337 
         2.0126         114.399         11.3492 
        2.01874         113.853         11.2654 
        2.02488         113.574         11.1824 
        2.03101          112.54         11.1003 
        2.03714         112.127         11.0192 
        2.04328         111.394         10.9388 
        2.04941         110.857         10.8592 
        2.05554         110.153         10.7806 
        2.06167         109.822         10.7025 
        2.06781         108.981         10.6253 
        2.07396         108.547         10.5487 
        2.08009         107.926          10.473 
        2.08622         107.182         10.3981 
        2.09237         106.772         10.3238 
        2.09851         106.173         10.2502 
        2.10464         105.723         10.1775 
        2.11077          105.08         10.1056 
        2.11691         104.632         10.0342 
        2.12305         103.927         9.96344 
        2.12918         103.248         9.89357 
        2.13531         102.748         9.82437 
        2.14145         102.103         9.75567 
         2.1476         101.472         9.68754 
        2.15372         101.172         9.62041 
        2.15985          100.64         9.55385 
        2.16599         99.9045         9.48773 
        2.17213         99.5081          9.4223 
        2.17827         98.9808         9.35751 
         2.1844         98.2354         9.29339 
        2.19054         97.9466         9.22984 
        2.19666          97.482         9.16698 
         2.2028         96.8037         9.10465 
        2.20893         96.4578         9.04288 
        2.21508          95.866          8.9816 
        2.22122         95.3408         8.92088 
        2.22736         94.8064         8.86084 
        2.23349         94.4224         8.80137 
        2.23962         93.9374         8.74242 
        2.24577         93.3651         8.68396 
         2.2519         93.0614         8.62611 
        2.25802         92.2189         8.56888 
        2.26417         91.9555         8.51202 
        2.27031         91.3935         8.45562 
        2.27644         90.8808          8.3999 
        2.28257           90.33         8.34468 
        2.28872         90.1207         8.28985 
        2.29486         89.4075         8.23554 
        2.30099         88.9123         8.18182 
        2.30712          88.565         8.12855 
        2.31326         88.0209         8.07567 
         2.3194         87.5517          8.0233 
        2.32553         87.2122         7.97147 
        2.33166         86.7336         7.92013 
         2.3378         86.2206         7.86917 
        2.34394         85.8156         7.81864 
        2.35007         85.3755         7.76863 
        2.35619         84.9976         7.71912 
        2.36233         84.4326         7.66992 
        2.36848         83.9482         7.62105 
        2.37462         83.5868         7.57271 
        2.38075         83.0961         7.52483 
        2.38689         82.6742         7.47733 
        2.39303         82.1238         7.43025 
        2.39916         81.8885         7.38362 
        2.40529         81.5772         7.33739 
        2.41143         80.9077         7.29153 
        2.41757         80.6347         7.24604 
         2.4237         80.2207         7.20102 
        2.42983         79.7203         7.15638 
        2.43598         79.2422         7.11201 
        2.44211         79.1431         7.06809 
        2.44823         78.5709         7.02463 
        2.45437         77.9492         6.98142 
        2.46052         77.6288         6.93855 
        2.46665          77.407          6.8961 
        2.47279         76.8357         6.85403 
        2.47892         76.5236         6.81228 
        2.48507         76.1309         6.77084 
         2.4912         75.8004         6.72982 
