# k  (h/Mpc)    P(k)  (Mpc/h)^3    P_linear(k)  (Mpc/h)^3
     0.00783031         17014.9         17264.3 
       0.013688         21408.6         21205.3 
       0.019231         21387.6         21355.2 
      0.0249154         19180.8         19626.7 
      0.0312784         16667.3         16887.8 
      0.0375637         14293.8         14317.3 
      0.0433917         12190.8         12445.9 
      0.0492413         11004.5         11111.1 
      0.0555754         9777.18           10136 
      0.0619321            9396         9418.62 
       0.067871         8497.34         8793.68 
      0.0738098         7834.64         8103.15 
      0.0800417         6971.04         7289.33 
      0.0862327         6274.35         6450.46 
      0.0921407         5683.49         5706.08 
      0.0982031         5040.37         5068.23 
       0.104506         4712.44         4571.62 
       0.110769         4357.46         4232.68 
       0.116806         4112.44         4008.92 
       0.122832         3925.26         3832.84 
       0.129052         3647.64         3650.25 
       0.135211         3453.87         3437.59 
       0.141259         3293.41         3193.35 
       0.147318         3086.16         2930.26 
       0.153489         2813.49         2670.46 
       0.159709         2650.25         2442.18 
       0.165845         2546.41         2263.55 
       0.171974         2407.62         2131.53 
       0.178125         2293.68         2035.14 
       0.184229         2195.89         1959.24 
        0.19034         2083.31         1886.85 
       0.196428         2039.13         1806.85 
       0.202534         1958.06          1714.5 
       0.208729         1866.18         1611.43 
       0.214876         1788.15         1507.54 
       0.220989         1723.09          1411.1 
       0.227147            1651          1327.2 
        0.23329          1585.5         1259.11 
       0.239377          1560.9         1205.52 
       0.245482         1465.53         1161.48 
       0.251667         1458.14         1121.52 
       0.257832         1400.48         1081.65 
       0.263955         1354.02          1039.3 
       0.270079         1307.17         993.828 
        0.27624         1291.46         946.442 
       0.282372         1237.89         900.237 
        0.28843          1230.3         857.873 
       0.294538         1169.19         820.047 
       0.300721         1161.78           787.1 
        0.30691         1117.49         758.708 
       0.313033          1095.3         733.699 
       0.319153         1076.89          710.13 
       0.325316         1041.96         686.546 
        0.33145         1018.69         662.563 
       0.337538         1000.08         638.285 
       0.343633         978.634         614.044 
       0.349808         945.374           590.3 
       0.355968         938.652         568.156 
       0.362074         929.747         548.063 
       0.368217         900.233         529.798 
       0.374374         866.888         513.108 
       0.380519          868.42         497.602 
       0.386598         843.327         482.931 
       0.392688         840.361         468.495 
        0.39888          815.96         453.943 
       0.405048         805.908          439.59 
       0.411186         794.728         425.587 
       0.417313          778.01         412.133 
       0.423458         764.025         399.345 
       0.429607         754.862         387.319 
       0.435692         738.795         376.204 
       0.441815         732.299         365.691 
       0.447964         717.456         355.645 
       0.454126         710.978         345.953 
       0.460267         693.296         336.573 
       0.466387         685.065         327.424 
        0.47254         680.819         318.422 
       0.478662         673.767         309.725 
       0.484765         653.646         301.366 
       0.490885         649.535         293.326 
       0.497035         636.299         285.605 
       0.503198         632.219         278.239 
       0.509342         625.893         271.229 
       0.515458         622.069         264.524 
       0.521598         606.299         258.012 
       0.527764         596.055         251.664 
       0.533884         593.765         245.545 
           0.54         587.495         239.605 
       0.546137         582.725         233.816 
       0.552299         574.604         228.184 
       0.558452         570.366         222.754 
       0.564573         563.233         217.552 
       0.570708         556.587         212.535 
       0.576825         542.007         207.711 
       0.582926          543.86         203.059 
       0.589034         538.506         198.541 
       0.595184         533.868         194.121 
       0.601379         525.872         189.799 
       0.607522         518.532         185.639 
       0.613639         518.237         181.618 
       0.619772         507.633         177.708 
       0.625918         504.873         173.906 
       0.632068         497.804         170.217 
       0.638161         495.845          166.67 
         0.6443         487.594         163.202 
       0.650464          485.43         159.824 
       0.656582         481.067         156.569 
       0.662703         479.648         153.406 
       0.668861         471.671         150.313 
       0.675024         467.909         147.304 
       0.681124         464.384         144.407 
       0.687237          460.62         141.581 
       0.693381         454.382         138.818 
       0.699536         447.633         136.123 
       0.705665         446.757         133.512 
       0.711789         444.635         130.972 
       0.717957         440.512         128.482 
        0.72409          438.16         126.071 
       0.730186         431.798         123.739 
       0.736317         428.912         121.453 
       0.742472         426.513         119.218 
       0.748622         421.908         117.041 
        0.75476         416.098         114.925 
       0.760888         412.311         112.864 
       0.767043         412.614         110.847 
       0.773185         408.433         108.883 
       0.779291         403.599         106.978 
       0.785407         401.452         105.116 
       0.791564          396.84         103.287 
       0.797719         394.892         101.504 
       0.803834         390.347         99.7734 
       0.809972         389.698         98.0777 
       0.816124         388.426          96.418 
       0.822261         383.252         94.8016 
       0.828378         380.989         93.2273 
       0.834502         376.805         91.6878 
       0.840667         374.159         90.1734 
       0.846816         372.622         88.6978 
       0.852925         369.965         87.2647 
       0.859047         367.904         85.8606 
       0.865192         363.352          84.483 
       0.871341         360.498          83.135 
       0.877463         360.279         81.8228 
       0.883569         356.924         80.5424 
       0.889708         354.152         79.2831 
       0.895864         352.937         78.0477 
       0.902008         349.673         76.8414 
       0.908149         345.773         75.6615 
       0.914301         343.553         74.5047 
       0.920448         341.842         73.3733 
       0.926574         336.987         72.2695 
       0.932687         336.972          71.191 
       0.938823         333.609         70.1308 
       0.944975         333.483         69.0899 
       0.951105         329.902          68.074 
       0.957225         327.821         67.0805 
       0.963368         323.833         66.1035 
       0.969511         323.046         65.1461 
       0.975621         320.917         64.2129 
       0.981748         319.302         63.2958 
       0.987916         317.552         62.3908 
        0.99406         312.738         61.5071 
        1.00019         311.543         60.6424 
        1.00632          310.33         59.7952 
        1.01246         307.665         58.9631 
        1.01859         308.135         58.1482 
        1.02471         303.224         57.3499 
        1.03085         302.033         56.5639 
        1.03698         300.718         55.7944 
        1.04314          298.06         55.0361 
        1.04929         295.443         54.2937 
        1.05541          296.27         53.5681 
        1.06154         291.175          52.854 
        1.06769         290.615          52.152 
        1.07382         288.362         51.4651 
        1.07993         286.821         50.7922 
        1.08607         286.054         50.1285 
        1.09222         283.014         49.4762 
        1.09836         281.231         48.8362 
        1.10449         278.918         48.2084 
        1.11063         276.236          47.591 
        1.11677         276.297         46.9847 
         1.1229         273.991         46.3901 
        1.12903         272.464         45.8053 
        1.13518          270.13         45.2302 
        1.14131          268.57         44.6653 
        1.14745          267.75         44.1104 
        1.15359         265.662         43.5649 
        1.15973         263.816         43.0285 
        1.16584         261.965         42.5035 
        1.17197         262.059         41.9866 
        1.17811         258.593         41.4768 
        1.18424         256.995          40.977 
        1.19038         256.411          40.484 
        1.19652         254.141         39.9993 
        1.20267         253.612         39.5226 
        1.20881         251.505         39.0538 
        1.21495         249.753         38.5933 
        1.22108         248.298         38.1404 
         1.2272         246.858         37.6959 
        1.23334         245.797         37.2575 
        1.23949           243.5          36.825 
        1.24562         242.757         36.4006 
        1.25174         241.297         35.9836 
        1.25789         239.412         35.5719 
        1.26402         237.371         35.1674 
        1.27014         236.164         34.7703 
        1.27628         234.793         34.3781 
        1.28244         234.653         33.9912 
        1.28858         232.239         33.6108 
        1.29471         230.965         33.2372 
        1.30084         229.264         32.8696 
        1.30697         228.144          32.507 
        1.31312         225.961         32.1494 
        1.31925         224.958         31.7984 
        1.32537         224.466         31.4529 
        1.33151         222.329         31.1114 
        1.33765         220.665         30.7751 
        1.34378         220.072         30.4445 
        1.34992         218.828         30.1186 
        1.35606         218.481         29.7967 
         1.3622         216.201         29.4801 
        1.36833         214.571         29.1689 
        1.37445         213.708         28.8624 
        1.38059         211.939         28.5593 
        1.38675         211.187         28.2599 
        1.39288         210.063          27.966 
        1.39901         209.082         27.6764 
        1.40515         207.427         27.3903 
         1.4113         206.402         27.1083 
        1.41742         204.827         26.8314 
        1.42355         203.933         26.5579 
         1.4297         202.162         26.2874 
        1.43585          201.32         26.0208 
        1.44198         200.587         25.7589 
        1.44809         199.211         25.5011 
        1.45423         198.303         25.2459 
        1.46036         196.945         24.9947 
        1.46649         195.671         24.7468 
        1.47263          194.62         24.5021 
        1.47877           193.2         24.2608 
        1.48491         191.543         24.0225 
        1.49104         191.201         23.7878 
        1.49718         189.488         23.5561 
        1.50333         188.887         23.3271 
        1.50947         187.628         23.1016 
         1.5156          186.23         22.8795 
        1.52172         185.598         22.6603 
        1.52787         183.855         22.4435 
          1.534         183.615         22.2298 
        1.54013         182.146         22.0191 
        1.54627         181.073         21.8108 
        1.55241         179.994         21.6052 
        1.55855          178.77         21.4025 
        1.56467          177.71          21.203 
         1.5708          176.96         21.0055 
        1.57695         176.171         20.8101 
        1.58308         174.995         20.6178 
        1.58922         173.849         20.4277 
        1.59535         172.458         20.2402 
         1.6015         171.891         20.0547 
        1.60764         170.868         19.8716 
        1.61376         169.984         19.6914 
        1.61989          169.09         19.5132 
        1.62604         167.825         19.3369 
        1.63218         167.195         19.1628 
        1.63831         165.859         18.9913 
        1.64444         165.145         18.8219 
        1.65059          164.22         18.6541 
        1.65673         163.106         18.4885 
        1.66285          162.09         18.3255 
        1.66898         161.225         18.1643 
        1.67512         160.743         18.0048 
        1.68127         159.205         17.8471 
         1.6874         158.506         17.6916 
        1.69353         157.554          17.538 
        1.69967         156.422         17.3859 
        1.70581         155.816         17.2357 
        1.71193         154.734         17.0878 
        1.71806         154.105         16.9414 
        1.72421         153.156         16.7963 
        1.73035         152.558         16.6532 
        1.73649         151.594         16.5117 
        1.74262         150.632          16.372 
        1.74876         149.658         16.2339 
        1.75489         148.975         16.0976 
        1.76101         147.641         15.9629 
        1.76715         147.496         15.8296 
        1.77329         146.473         15.6976 
        1.77943         145.814         15.5671 
        1.78557         145.009         15.4383 
        1.79171           144.2         15.3109 
        1.79785         143.222          15.185 
        1.80399         142.446         15.0605 
        1.81012         141.662         14.9375 
        1.81625         141.168          14.816 
        1.82239         140.132         14.6957 
        1.82853         139.522         14.5767 
        1.83466         138.616         14.4592 
        1.84078          137.93         14.3431 
        1.84692         136.712         14.2282 
        1.85306         136.571         14.1143 
         1.8592         135.582         14.0018 
        1.86533         134.971         13.8907 
        1.87147         133.848         13.7806 
        1.87761         133.043         13.6717 
        1.88375         132.377         13.5641 
        1.88988         131.434         13.4577 
        1.89601         131.144         13.3525 
        1.90215         130.258         13.2483 
        1.90829         129.496         13.1452 
        1.91442         128.981         13.0433 
        1.92056         128.111         12.9425 
         1.9267         127.499         12.8426 
        1.93284         126.553         12.7438 
        1.93897         126.086         12.6462 
        1.94509         125.499         12.5498 
        1.95123         124.863         12.4542 
        1.95737          124.12         12.3596 
        1.96349         123.452         12.2661 
        1.96964         122.474         12.1734 
        1.97578         121.778         12.0815 
        1.98192         121.334         11.9908 
        1.98805         120.686         11.9011 
        1.99419         119.954         11.8122 
        2.00033         119.312         11.7242 
        2.00647         118.774         11.6372 
         2.0126          117.82         11.5511 
        2.01874         117.265         11.4658 
        2.02488         116.998         11.3813 
        2.03101         115.865         11.2978 
        2.03714         115.521         11.2153 
        2.04328         114.672         11.1334 
        2.04941         114.182         11.0525 
        2.05554         113.433         10.9724 
        2.06167         113.081          10.893 
        2.06781         112.215         10.8144 
        2.07396         111.792         10.7364 
        2.08009         111.103         10.6593 
        2.08622         110.326         10.5831 
        2.09237         109.956         10.5075 
        2.09851         109.303         10.4326 
        2.10464         108.876         10.3586 
        2.11077         108.201         10.2854 
        2.11691         107.714         10.2127 
        2.12305         107.066         10.1407 
        2.12918         106.325         10.0696 
        2.13531         105.771         9.99918 
        2.14145         105.168         9.92925 
         2.1476         104.453         9.85992 
        2.15372           104.2         9.79159 
        2.15985         103.606         9.72385 
        2.16599         102.872         9.65655 
        2.17213         102.458         9.58996 
        2.17827         101.885         9.52401 
         2.1844         101.139         9.45875 
        2.19054         100.837         9.39407 
        2.19666         100.315          9.3301 
         2.2028         99.6469         9.26666 
        2.20893         99.3089         9.20378 
        2.21508         98.6664         9.14142 
        2.22122         98.1468         9.07961 
        2.22736         97.5973         9.01851 
        2.23349         97.1872         8.95798 
        2.23962         96.7034         8.89798 
        2.24577          96.069         8.83847 
         2.2519         95.7754          8.7796 
        2.25802         94.9027         8.72135 
        2.26417         94.6642         8.66348 
        2.27031         94.0434         8.60607 
        2.27644         93.5535         8.54936 
        2.28257         92.9907         8.49316 
        2.28872         92.7159         8.43736 
        2.29486         92.0207         8.38208 
        2.30099         91.5156          8.3274 
        2.30712         91.1065         8.27319 
        2.31326         90.5623         8.21937 
         2.3194         90.1035         8.16606 
        2.32553         89.7165         8.11331 
        2.33166         89.2356         8.06106 
         2.3378         88.7694         8.00919 
        2.34394         88.3226         7.95776 
        2.35007         87.8386         7.90686 
        2.35619         87.4498         7.85647 
        2.36233         86.9064          7.8064 
        2.36848         86.3889         7.75665 
        2.37462         86.0532         7.70745 
        2.38075         85.4737         7.65873 
        2.38689         85.0527         7.61038 
        2.39303         84.5214         7.56246 
        2.39916         84.2464           7.515 
        2.40529         83.9661         7.46795 
        2.41143           83.28         7.42127 
        2.41757         82.9526         7.37497 
         2.4237          82.519         7.32915 
        2.42983         82.0232         7.28372 
        2.43598         81.5297         7.23856 
        2.44211         81.4209         7.19385 
        2.44823         80.8422         7.14962 
        2.45437         80.2046         7.10565 
        2.46052         79.8365         7.06201 
        2.46665         79.6325         7.01881 
        2.47279         79.0525         6.97599 
        2.47892         78.7223         6.93349 
        2.48507         78.3367         6.89131 
         2.4912         77.9822         6.84957 
