# k  (h/Mpc)    P(k)  (Mpc/h)^3    P_linear(k)  (Mpc/h)^3
     0.00783031         8873.63         9009.93 
       0.013688         11114.5         11070.1 
       0.019231         11153.7         11150.3 
      0.0249154         10082.2           10249 
      0.0312784         8751.25         8819.52 
      0.0375637         7482.88          7477.5 
      0.0433917         6420.94         6500.41 
      0.0492413         5778.09         5803.42 
      0.0555754         5177.91         5294.23 
      0.0619321         4934.16         4919.64 
       0.067871          4503.1         4593.28 
      0.0738098         4148.62         4232.64 
      0.0800417         3702.79         3807.58 
      0.0862327         3315.97         3369.43 
      0.0921407         2976.53         2980.62 
      0.0982031         2633.85         2647.45 
       0.104506         2439.58         2388.05 
       0.110769         2254.78         2211.02 
       0.116806         2119.55         2094.14 
       0.122832         2032.67         2002.16 
       0.129052         1900.29         1906.79 
       0.135211          1796.3         1795.71 
       0.141259         1699.07         1668.13 
       0.147318         1580.64          1530.7 
       0.153489         1437.36         1394.99 
       0.159709         1342.27         1275.74 
       0.165845         1274.99         1182.43 
       0.171974         1197.66         1113.47 
       0.178125         1143.87         1063.12 
       0.184229         1101.64         1023.47 
        0.19034         1035.32         985.658 
       0.196428         1014.64         943.869 
       0.202534         977.588         895.626 
       0.208729         923.318         841.788 
       0.214876         870.621         787.516 
       0.220989         836.925         737.138 
       0.227147          791.58         693.311 
        0.23329         758.106         657.744 
       0.239377         740.869         629.746 
       0.245482         693.105          606.74 
       0.251667         687.072          585.87 
       0.257832         662.696         565.041 
       0.263955         639.812         542.918 
       0.270079         615.464         519.163 
        0.27624         605.865          494.41 
       0.282372         580.003         470.273 
        0.28843         563.887         448.143 
       0.294538         536.344         428.383 
       0.300721         532.283         411.172 
        0.30691         507.905         396.341 
       0.313033         497.575         383.276 
       0.319153         481.503         370.964 
       0.325316         467.932         358.644 
        0.33145         453.808         346.116 
       0.337538         447.436         333.434 
       0.343633         432.672          320.77 
       0.349808         418.125         308.367 
       0.355968          413.35         296.799 
       0.362074         404.566         286.303 
       0.368217         393.467         276.761 
       0.374374           378.1         268.042 
       0.380519         374.326         259.943 
       0.386598         364.943         252.279 
       0.392688         361.734         244.737 
        0.39888         351.604         237.135 
       0.405048          343.82         229.637 
       0.411186         336.975         222.323 
       0.417313         330.617         215.294 
       0.423458         324.275         208.614 
       0.429607         317.516         202.332 
       0.435692         309.187         196.525 
       0.441815         306.762         191.033 
       0.447964         300.702         185.786 
       0.454126         290.335         180.723 
       0.460267         286.591         175.823 
       0.466387         283.217         171.043 
        0.47254         277.048         166.341 
       0.478662         275.919         161.798 
       0.484765         267.163         157.431 
       0.490885         263.864         153.231 
       0.497035         259.759         149.197 
       0.503198         254.093          145.35 
       0.509342         251.651         141.688 
       0.515458          248.33         138.185 
       0.521598          243.78         134.783 
       0.527764         239.997         131.467 
       0.533884         237.203         128.271 
           0.54         233.662         125.168 
       0.546137         232.388         122.143 
       0.552299         227.672         119.201 
       0.558452         225.222         116.365 
       0.564573         221.638         113.647 
       0.570708         217.489         111.026 
       0.576825         214.635         108.507 
       0.582926         211.794         106.076 
       0.589034         209.409         103.716 
       0.595184         207.188         101.407 
       0.601379         204.933         99.1495 
       0.607522         200.905         96.9761 
       0.613639         199.863         94.8758 
       0.619772         195.475          92.833 
       0.625918         193.949         90.8473 
       0.632068         191.468         88.9199 
       0.638161          190.32         87.0671 
         0.6443         187.355         85.2555 
       0.650464         185.497         83.4908 
       0.656582          183.71         81.7903 
       0.662703         181.774         80.1378 
       0.668861         178.812         78.5223 
       0.675024         176.752         76.9503 
       0.681124         175.929          75.437 
       0.687237         173.096         73.9611 
       0.693381         170.627         72.5174 
       0.699536         169.463         71.1097 
       0.705665         168.979         69.7456 
       0.711789         165.765         68.4188 
       0.717957         165.221          67.118 
        0.72409         162.978         65.8587 
       0.730186          160.65         64.6401 
       0.736317         159.465         63.4461 
       0.742472         158.541         62.2784 
       0.748622         157.094         61.1415 
        0.75476         155.752         60.0359 
       0.760888         153.571         58.9594 
       0.767043         152.953         57.9054 
       0.773185         151.309         56.8795 
       0.779291         148.872         55.8844 
       0.785407         148.247         54.9119 
       0.791564         146.936         53.9566 
       0.797719          144.78         53.0247 
       0.803834         144.125         52.1209 
       0.809972         142.624          51.235 
       0.816124          142.38         50.3681 
       0.822261         140.612         49.5236 
       0.828378          139.31         48.7013 
       0.834502         138.985          47.897 
       0.840667         136.887         47.1059 
       0.846816          135.64          46.335 
       0.852925         134.895         45.5864 
       0.859047         133.299         44.8529 
       0.865192         132.474         44.1333 
       0.871341         131.228         43.4291 
       0.877463          130.13         42.7436 
       0.883569         129.326         42.0748 
       0.889708         128.309         41.4169 
       0.895864         127.013         40.7715 
       0.902008         126.202         40.1414 
       0.908149         125.595          39.525 
       0.914301         124.248         38.9207 
       0.920448         123.346         38.3297 
       0.926574          122.61         37.7531 
       0.932687         122.244         37.1897 
       0.938823         120.449         36.6358 
       0.944975         119.334         36.0921 
       0.951105         118.827         35.5614 
       0.957225         117.482         35.0424 
       0.963368         116.599          34.532 
       0.969511         116.326         34.0319 
       0.975621         115.757         33.5444 
       0.981748         114.915         33.0652 
       0.987916         113.668         32.5925 
        0.99406         112.962         32.1309 
        1.00019         112.378         31.6792 
        1.00632         111.495         31.2366 
        1.01246         110.757         30.8019 
        1.01859         109.527         30.3762 
        1.02471         109.294         29.9592 
        1.03085         108.202         29.5486 
        1.03698         107.643         29.1466 
        1.04314         106.647         28.7504 
        1.04929         106.027         28.3626 
        1.05541         105.302         27.9836 
        1.06154          104.76         27.6106 
        1.06769         104.472         27.2438 
        1.07382         103.781          26.885 
        1.07993         102.947         26.5335 
        1.08607         102.162         26.1868 
        1.09222         101.757          25.846 
        1.09836         100.906         25.5117 
        1.10449         100.287         25.1837 
        1.11063         99.6361         24.8612 
        1.11677         99.2202         24.5445 
         1.1229          98.126         24.2339 
        1.12903         97.4085         23.9284 
        1.13518         97.6091         23.6279 
        1.14131          96.712         23.3328 
        1.14745          95.922          23.043 
        1.15359         95.3992          22.758 
        1.15973         95.0497         22.4778 
        1.16584         94.2136         22.2035 
        1.17197         93.7421         21.9335 
        1.17811         93.1459         21.6672 
        1.18424         92.5669         21.4061 
        1.19038         92.0782         21.1485 
        1.19652         91.5909         20.8953 
        1.20267         90.8363         20.6463 
        1.20881         90.3556         20.4014 
        1.21495         89.7541         20.1609 
        1.22108         89.3202         19.9243 
         1.2272          88.542         19.6921 
        1.23334         88.2431          19.463 
        1.23949         87.5497         19.2371 
        1.24562         87.2573         19.0154 
        1.25174          86.636         18.7976 
        1.25789         86.2696         18.5825 
        1.26402         85.8459         18.3712 
        1.27014         85.1146         18.1637 
        1.27628         84.8461         17.9589 
        1.28244         84.1729         17.7568 
        1.28858         83.9091         17.5581 
        1.29471         83.3375         17.3629 
        1.30084         82.8646         17.1708 
        1.30697          82.394         16.9814 
        1.31312         81.9883         16.7946 
        1.31925         81.5215         16.6112 
        1.32537         81.1982         16.4308 
        1.33151         80.4023         16.2524 
        1.33765         80.0225         16.0767 
        1.34378         79.5541          15.904 
        1.34992         79.3567         15.7337 
        1.35606         78.8785         15.5656 
         1.3622         78.1653         15.4002 
        1.36833         78.0429         15.2376 
        1.37445         77.5129         15.0775 
        1.38059         76.9849         14.9192 
        1.38675          76.534         14.7628 
        1.39288         76.1148         14.6092 
        1.39901         75.9951          14.458 
        1.40515         75.4864         14.3085 
         1.4113          74.988         14.1612 
        1.41742         74.8914         14.0166 
        1.42355         74.1892         13.8737 
         1.4297         73.9186         13.7324 
        1.43585         73.3368         13.5931 
        1.44198         73.0872         13.4563 
        1.44809         72.7099         13.3216 
        1.45423         72.2986         13.1883 
        1.46036         72.1019         13.0571 
        1.46649         71.6315         12.9276 
        1.47263         71.1738         12.7997 
        1.47877         70.9974         12.6737 
        1.48491         70.5813         12.5492 
        1.49104         70.1419         12.4266 
        1.49718         69.6951         12.3055 
        1.50333         69.3907         12.1859 
        1.50947         69.0229         12.0681 
         1.5156         68.7145         11.9521 
        1.52172         68.3881         11.8376 
        1.52787         68.2102         11.7243 
          1.534         67.7258         11.6127 
        1.54013         67.2718         11.5026 
        1.54627         67.0602         11.3938 
        1.55241         66.6114         11.2864 
        1.55855         66.3053         11.1805 
        1.56467         65.8592         11.0763 
         1.5708         65.7414         10.9731 
        1.57695          65.485         10.8711 
        1.58308         64.9075         10.7706 
        1.58922         64.8359         10.6713 
        1.59535         64.5943         10.5733 
         1.6015         63.9643         10.4764 
        1.60764         63.8154         10.3808 
        1.61376         63.4299         10.2866 
        1.61989         63.0872         10.1936 
        1.62604          62.919         10.1015 
        1.63218         62.6625         10.0105 
        1.63831         62.2362         9.92094 
        1.64444         61.9284         9.83242 
        1.65059         61.5195         9.74478 
        1.65673         61.3561         9.65829 
        1.66285          60.985         9.57311 
        1.66898         60.7196         9.48892 
        1.67512         60.3254         9.40559 
        1.68127          60.031         9.32318 
         1.6874         59.8436         9.24195 
        1.69353          59.543         9.16173 
        1.69967         59.1882         9.08228 
        1.70581         59.0754         9.00381 
        1.71193         58.8444         8.92656 
        1.71806         58.2621         8.85005 
        1.72421         58.1744         8.77429 
        1.73035         57.8437         8.69951 
        1.73649         57.4449         8.62561 
        1.74262         57.3406         8.55264 
        1.74876         57.0367         8.48046 
        1.75489         56.7056         8.40926 
        1.76101         56.5217         8.33891 
        1.76715         56.1294         8.26927 
        1.77329         55.9428         8.20034 
        1.77943         55.5699         8.13217 
        1.78557         55.4442         8.06488 
        1.79171         55.1218         7.99833 
        1.79785         54.9104         7.93253 
        1.80399         54.6659         7.86749 
        1.81012         54.4598         7.80326 
        1.81625          53.954         7.73978 
        1.82239         53.8103         7.67692 
        1.82853         53.4558         7.61479 
        1.83466         53.3228          7.5534 
        1.84078         52.9503         7.49276 
        1.84692         52.6885         7.43269 
        1.85306         52.5135         7.37321 
         1.8592         52.1526         7.31447 
        1.86533         52.0336         7.25641 
        1.87147         51.7601         7.19891 
        1.87761         51.5676         7.14201 
        1.88375         51.2972         7.08579 
        1.88988         51.2206         7.03024 
        1.89601         50.8103         6.97525 
        1.90215         50.6062         6.92081 
        1.90829         50.4603         6.86698 
        1.91442         50.1528         6.81372 
        1.92056         49.8273         6.76106 
         1.9267         49.6015         6.70892 
        1.93284         49.4237         6.65729 
        1.93897         49.1718          6.6063 
        1.94509         48.8588         6.55596 
        1.95123          48.771         6.50601 
        1.95737         48.5274         6.45655 
        1.96349         48.2249         6.40774 
        1.96964         48.1748         6.35929 
        1.97578         47.8213         6.31131 
        1.98192         47.6421         6.26394 
        1.98805         47.4814         6.21704 
        1.99419          47.139         6.17062 
        2.00033         46.9471         6.12466 
        2.00647         46.7416         6.07918 
         2.0126         46.4689         6.03423 
        2.01874         46.3382         5.98968 
        2.02488         46.1797         5.94553 
        2.03101         45.8765         5.90192 
        2.03714          45.668         5.85878 
        2.04328         45.4422         5.81603 
        2.04941         45.1839         5.77374 
        2.05554          44.923          5.7319 
        2.06167         44.8808         5.69042 
        2.06781         44.6538         5.64935 
        2.07396         44.4054         5.60862 
        2.08009         44.2486         5.56837 
        2.08622         43.9529         5.52856 
        2.09237         43.7842         5.48906 
        2.09851         43.6036         5.44994 
        2.10464         43.3982         5.41126 
        2.11077         43.2567         5.37301 
        2.11691         42.9824         5.33505 
        2.12305         42.7517         5.29745 
        2.12918         42.5597          5.2603 
        2.13531         42.3447         5.22351 
        2.14145         42.2097         5.18698 
         2.1476           42.02         5.15076 
        2.15372         41.7621         5.11506 
        2.15985         41.6037         5.07967 
        2.16599         41.5281         5.04452 
        2.17213         41.3586         5.00973 
        2.17827          41.075         4.97528 
         2.1844         40.8761         4.94119 
        2.19054         40.6584          4.9074 
        2.19666         40.5024         4.87398 
         2.2028           40.32         4.84084 
        2.20893         40.2062           4.808 
        2.21508         40.0394         4.77542 
        2.22122         39.7802         4.74313 
        2.22736         39.6263         4.71121 
        2.23349         39.4946         4.67959 
        2.23962         39.1703         4.64825 
        2.24577         39.0385         4.61716 
         2.2519         38.8364         4.58641 
        2.25802         38.7843         4.55598 
        2.26417         38.5543         4.52575 
        2.27031         38.4472         4.49576 
        2.27644         38.1368         4.46613 
        2.28257         38.0445         4.43677 
        2.28872         37.7863         4.40762 
        2.29486         37.7106         4.37874 
        2.30099         37.5372         4.35018 
        2.30712         37.3711         4.32186 
        2.31326         37.2187         4.29375 
         2.3194         37.0167          4.2659 
        2.32553         36.8732         4.23834 
        2.33166         36.7213         4.21105 
         2.3378         36.4735         4.18395 
        2.34394         36.2723         4.15709 
        2.35007         36.1617          4.1305 
        2.35619         36.0797         4.10417 
        2.36233         35.9521         4.07801 
        2.36848         35.6644         4.05203 
        2.37462         35.6047         4.02633 
        2.38075         35.4264         4.00087 
        2.38689         35.3581         3.97561 
        2.39303         35.1267         3.95058 
        2.39916         34.9224         3.92579 
        2.40529         34.6954         3.90121 
        2.41143         34.6675         3.87683 
        2.41757         34.5506         3.85264 
         2.4237         34.3592          3.8287 
        2.42983         34.2057         3.80497 
        2.43598         33.9948         3.78138 
        2.44211          33.861         3.75802 
        2.44823         33.7401         3.73492 
        2.45437          33.633         3.71195 
        2.46052         33.3807         3.68915 
        2.46665         33.3288         3.66658 
        2.47279         33.1668         3.64421 
        2.47892          32.973         3.62201 
        2.48507         32.8559         3.59998 
         2.4912         32.7132         3.57817 
