# k  (h/Mpc)    P(k)  (Mpc/h)^3    P_linear(k)  (Mpc/h)^3
     0.00783031         123.238         130.481 
       0.013688         152.411         160.591 
       0.019231         154.223         161.879 
      0.0249154         141.649         148.861 
      0.0312784         122.353         128.138 
      0.0375637         103.969          108.66 
      0.0433917         90.3212         94.4733 
      0.0492413         80.7105         84.3511 
      0.0555754         73.4874         76.9557 
      0.0619321         68.4552         71.5144 
       0.067871         63.7277         66.7729 
      0.0738098         58.7127         61.5323 
      0.0800417          52.787         55.3546 
      0.0862327         46.7963         48.9859 
      0.0921407         41.4367         43.3341 
      0.0982031         36.7891         38.4909 
       0.104506         33.2749           34.72 
       0.110769         30.7885         32.1464 
       0.116806         29.0812         30.4473 
       0.122832           27.84         29.1103 
       0.129052         26.4558         27.7238 
       0.135211         24.9039         26.1089 
       0.141259          23.177         24.2541 
       0.147318         21.3115         22.2561 
       0.153489         19.4059          20.283 
       0.159709         17.7555         18.5492 
       0.165845         16.5103         17.1926 
       0.171974         15.4904         16.1899 
       0.178125         14.7977         15.4578 
       0.184229         14.2587         14.8814 
        0.19034          13.684         14.3316 
       0.196428         13.1288          13.724 
       0.202534         12.4992         13.0226 
       0.208729         11.7248         12.2398 
       0.214876         10.9533         11.4507 
       0.220989         10.2958         10.7182 
       0.227147         9.65012          10.081 
        0.23329         9.15551         9.56381 
       0.239377         8.77099         9.15673 
       0.245482         8.43703         8.82221 
       0.251667         8.17153         8.51875 
       0.257832           7.869          8.2159 
       0.263955         7.56724         7.89423 
       0.270079         7.24067         7.54884 
        0.27624         6.91515         7.18893 
       0.282372         6.57978         6.83798 
        0.28843         6.25721          6.5162 
       0.294538         5.98465         6.22888 
       0.300721         5.76097         5.97863 
        0.30691         5.53548         5.76298 
       0.313033         5.35621         5.57302 
       0.319153         5.16066           5.394 
       0.325316         5.02373         5.21486 
        0.33145         4.84482          5.0327 
       0.337538         4.66617         4.84829 
       0.343633         4.48327         4.66416 
       0.349808         4.31941         4.48382 
       0.355968         4.16001         4.31562 
       0.362074         4.01048         4.16299 
       0.368217          3.8785         4.02426 
       0.374374         3.74734         3.89748 
       0.380519         3.64357         3.77971 
       0.386598         3.54084         3.66827 
       0.392688         3.44065         3.55862 
        0.39888         3.33047         3.44808 
       0.405048         3.22728         3.33906 
       0.411186         3.12743          3.2327 
       0.417313         3.02452          3.1305 
       0.423458         2.93691         3.03337 
       0.429607         2.84318         2.94203 
       0.435692         2.76236          2.8576 
       0.441815         2.68675         2.77774 
       0.447964         2.62137         2.70144 
       0.454126         2.54207         2.62782 
       0.460267         2.47366         2.55657 
       0.466387         2.40413         2.48707 
        0.47254         2.34109          2.4187 
       0.478662         2.28054         2.35264 
       0.484765         2.21564         2.28914 
       0.490885         2.15936         2.22807 
       0.497035         2.11127         2.16942 
       0.503198         2.05283         2.11347 
       0.509342         2.00443         2.06023 
       0.515458         1.95185          2.0093 
       0.521598         1.90499         1.95984 
       0.527764         1.85452         1.91162 
       0.533884         1.81677         1.86513 
           0.54         1.77146         1.82002 
       0.546137         1.73114         1.77604 
       0.552299         1.68933         1.73327 
       0.558452         1.64616         1.69202 
       0.564573          1.6111          1.6525 
       0.570708         1.57448          1.6144 
       0.576825         1.53691         1.57776 
       0.582926         1.50683         1.54242 
       0.589034         1.46682          1.5081 
       0.595184         1.43615         1.47453 
       0.601379         1.40506          1.4417 
       0.607522         1.37756          1.4101 
       0.613639         1.35161         1.37956 
       0.619772         1.31767         1.34985 
       0.625918         1.29202         1.32098 
       0.632068         1.26708         1.29295 
       0.638161         1.23887         1.26601 
         0.6443         1.21332         1.23967 
       0.650464         1.18608         1.21401 
       0.656582         1.16468         1.18929 
       0.662703         1.14208         1.16526 
       0.668861         1.12243         1.14177 
       0.675024         1.09763         1.11891 
       0.681124         1.07398         1.09691 
       0.687237         1.05649         1.07544 
       0.693381         1.03661         1.05445 
       0.699536         1.01208         1.03398 
       0.705665        0.994268         1.01415 
       0.711789        0.977765        0.994856 
       0.717957        0.957737         0.97594 
        0.72409        0.940601         0.95763 
       0.730186        0.922911         0.93991 
       0.736317        0.909554        0.922549 
       0.742472        0.892194         0.90557 
       0.748622        0.875005        0.889039 
        0.75476        0.858016        0.872962 
       0.760888        0.842497         0.85731 
       0.767043        0.832303        0.841984 
       0.773185         0.81498        0.827066 
       0.779291        0.800993        0.812597 
       0.785407        0.787732        0.798456 
       0.791564        0.774798        0.784566 
       0.797719        0.762564        0.771015 
       0.803834        0.750156        0.757873 
       0.809972        0.736795        0.744993 
       0.816124        0.724071        0.732386 
       0.822261        0.711119        0.720108 
       0.828378        0.701144         0.70815 
       0.834502        0.690878        0.696456 
       0.840667        0.677432        0.684952 
       0.846816        0.666834        0.673744 
       0.852925        0.658448        0.662858 
       0.859047        0.647955        0.652193 
       0.865192         0.63651        0.641729 
       0.871341        0.626494        0.631489 
       0.877463        0.618873        0.621522 
       0.883569        0.607775        0.611796 
       0.889708        0.598781        0.602231 
       0.895864        0.589502        0.592846 
       0.902008         0.57995        0.583683 
       0.908149        0.571305        0.574721 
       0.914301        0.560902        0.565934 
       0.920448        0.553605         0.55734 
       0.926574        0.545077        0.548956 
       0.932687        0.536834        0.540764 
       0.938823        0.531141         0.53271 
       0.944975        0.522988        0.524804 
       0.951105        0.515688        0.517087 
       0.957225        0.509554         0.50954 
       0.963368        0.501545        0.502119 
       0.969511        0.493502        0.494847 
       0.975621        0.486272        0.487759 
       0.981748         0.48125        0.480792 
       0.987916        0.473903        0.473918 
        0.99406        0.466966        0.467206 
        1.00019        0.461722        0.460637 
        1.00632         0.45382        0.454202 
        1.01246         0.44759        0.447881 
        1.01859        0.442511        0.441691 
        1.02471        0.436233        0.435627 
        1.03085        0.431701        0.429657 
        1.03698        0.424847        0.423812 
        1.04314        0.419607        0.418052 
        1.04929        0.413462        0.412413 
        1.05541        0.408867        0.406901 
        1.06154        0.402983        0.401477 
        1.06769        0.397396        0.396145 
        1.07382        0.392618        0.390927 
        1.07993        0.387209        0.385815 
        1.08607        0.383681        0.380775 
        1.09222         0.37787        0.375819 
        1.09836        0.374403        0.370958 
        1.10449        0.369498         0.36619 
        1.11063        0.363898          0.3615 
        1.11677        0.358935        0.356894 
         1.1229        0.355238        0.352378 
        1.12903        0.350388        0.347935 
        1.13518        0.346819        0.343567 
        1.14131        0.342082        0.339276 
        1.14745        0.336771        0.335061 
        1.15359        0.333849        0.330918 
        1.15973        0.328965        0.326843 
        1.16584        0.326361        0.322855 
        1.17197        0.322175        0.318929 
        1.17811        0.318896        0.315056 
        1.18424        0.315624         0.31126 
        1.19038        0.311111        0.307515 
        1.19652        0.306765        0.303833 
        1.20267        0.304424        0.300212 
        1.20881        0.300498        0.296651 
        1.21495        0.297731        0.293154 
        1.22108        0.293993        0.289714 
         1.2272        0.291087        0.286337 
        1.23334        0.287289        0.283007 
        1.23949        0.284122        0.279722 
        1.24562        0.281035        0.276498 
        1.25174        0.278153        0.273331 
        1.25789        0.275393        0.270203 
        1.26402        0.271421        0.267131 
        1.27014        0.268856        0.264114 
        1.27628        0.266393        0.261135 
        1.28244        0.262481        0.258196 
        1.28858        0.260201        0.255307 
        1.29471        0.258145        0.252469 
        1.30084        0.254744        0.249676 
        1.30697        0.251973        0.246922 
        1.31312        0.248564        0.244206 
        1.31925        0.246355         0.24154 
        1.32537        0.244134        0.238915 
        1.33151        0.241863        0.236321 
        1.33765        0.239399        0.233767 
        1.34378        0.236245        0.231256 
        1.34992        0.234017         0.22878 
        1.35606        0.231718        0.226335 
         1.3622        0.229401         0.22393 
        1.36833        0.226882        0.221567 
        1.37445        0.224004        0.219238 
        1.38059        0.222045        0.216936 
        1.38675        0.220759        0.214662 
        1.39288        0.218158        0.212429 
        1.39901        0.215898        0.210229 
        1.40515        0.214106        0.208056 
         1.4113        0.211391        0.205914 
        1.41742        0.209361        0.203811 
        1.42355        0.207847        0.201733 
         1.4297        0.205304        0.199679 
        1.43585        0.203562        0.197653 
        1.44198        0.201957        0.195664 
        1.44809        0.199536        0.193706 
        1.45423        0.197842        0.191768 
        1.46036        0.195769        0.189859 
        1.46649        0.194432        0.187976 
        1.47263        0.192263        0.186118 
        1.47877        0.190111        0.184285 
        1.48491        0.188682        0.182474 
        1.49104        0.186432        0.180692 
        1.49718        0.184805        0.178931 
        1.50333        0.183588        0.177192 
        1.50947        0.181577         0.17548 
         1.5156         0.17983        0.173792 
        1.52172        0.178327        0.172127 
        1.52787        0.176667         0.17048 
          1.534        0.174777        0.168857 
        1.54013        0.173237        0.167257 
        1.54627        0.172024        0.165675 
        1.55241        0.170123        0.164113 
        1.55855        0.168425        0.162573 
        1.56467        0.167669        0.161058 
         1.5708        0.165797        0.159557 
        1.57695        0.164363        0.158074 
        1.58308        0.162801        0.156612 
        1.58922        0.161509        0.155169 
        1.59535        0.160085        0.153744 
         1.6015        0.158522        0.152335 
        1.60764        0.157257        0.150945 
        1.61376        0.155599        0.149575 
        1.61989        0.154505        0.148222 
        1.62604        0.153331        0.146883 
        1.63218        0.151939        0.145561 
        1.63831        0.150732        0.144258 
        1.64444        0.149399        0.142971 
        1.65059        0.148099        0.141696 
        1.65673        0.146933        0.140439 
        1.66285        0.145919          0.1392 
        1.66898        0.144564        0.137976 
        1.67512        0.143092        0.136764 
        1.68127        0.141868        0.135566 
         1.6874        0.141058        0.134385 
        1.69353        0.139446        0.133218 
        1.69967         0.13886        0.132063 
        1.70581        0.137198        0.130922 
        1.71193        0.136227        0.129799 
        1.71806        0.134939        0.128686 
        1.72421        0.134294        0.127585 
        1.73035        0.132891        0.126497 
        1.73649        0.132074        0.125423 
        1.74262        0.130928        0.124362 
        1.74876        0.129821        0.123312 
        1.75489        0.128927        0.122277 
        1.76101        0.127642        0.121254 
        1.76715        0.126675        0.120241 
        1.77329        0.125535        0.119239 
        1.77943        0.124656        0.118248 
        1.78557        0.123895        0.117269 
        1.79171        0.122914        0.116302 
        1.79785        0.121925        0.115345 
        1.80399        0.120941        0.114399 
        1.81012        0.120052        0.113465 
        1.81625        0.119082        0.112542 
        1.82239        0.118167        0.111628 
        1.82853        0.117152        0.110725 
        1.83466        0.116408        0.109832 
        1.84078        0.115502         0.10895 
        1.84692        0.114473        0.108077 
        1.85306        0.113868        0.107212 
         1.8592        0.112769        0.106358 
        1.86533        0.112128        0.105514 
        1.87147        0.111209        0.104678 
        1.87761         0.11056         0.10385 
        1.88375        0.109558        0.103033 
        1.88988        0.108741        0.102225 
        1.89601        0.107893        0.101426 
        1.90215        0.107198        0.100634 
        1.90829         0.10625       0.0998512 
        1.91442        0.105765       0.0990766 
        1.92056        0.104841       0.0983111 
         1.9267        0.103979       0.0975528 
        1.93284        0.103271       0.0968021 
        1.93897        0.102509       0.0960607 
        1.94509        0.101934       0.0953287 
        1.95123        0.101115       0.0946024 
        1.95737         0.10046       0.0938833 
        1.96349       0.0996459       0.0931734 
        1.96964       0.0988808       0.0924689 
        1.97578       0.0982124       0.0917714 
        1.98192       0.0976412       0.0910825 
        1.98805       0.0969835       0.0904006 
        1.99419       0.0961071       0.0897256 
        2.00033       0.0954393       0.0890573 
        2.00647       0.0949986       0.0883959 
         2.0126       0.0940976       0.0877424 
        2.01874       0.0936606       0.0870946 
        2.02488        0.093011       0.0864527 
        2.03101         0.09234       0.0858185 
        2.03714       0.0915844       0.0851912 
        2.04328        0.091151       0.0845696 
        2.04941       0.0903221       0.0839547 
        2.05554       0.0898532       0.0833463 
        2.06167       0.0894241       0.0827432 
        2.06781       0.0885691       0.0821459 
        2.07396       0.0880279       0.0815538 
        2.08009       0.0874343       0.0809684 
        2.08622        0.086906       0.0803895 
        2.09237       0.0863392       0.0798152 
        2.09851       0.0857684       0.0792464 
        2.10464       0.0852602        0.078684 
        2.11077       0.0845847       0.0781278 
        2.11691       0.0840681       0.0775758 
        2.12305       0.0834902        0.077029 
        2.12918       0.0830573       0.0764889 
        2.13531       0.0823453       0.0759539 
        2.14145        0.081741       0.0754227 
         2.1476       0.0813352       0.0748961 
        2.15372       0.0809717       0.0743771 
        2.15985       0.0802995       0.0738625 
        2.16599       0.0797601       0.0733513 
        2.17213        0.079293       0.0728455 
        2.17827       0.0787162       0.0723445 
         2.1844       0.0783484       0.0718488 
        2.19054       0.0777996       0.0713575 
        2.19666       0.0772395       0.0708716 
         2.2028       0.0767724       0.0703897 
        2.20893       0.0764554       0.0699121 
        2.21508       0.0757889       0.0694383 
        2.22122       0.0752481       0.0689689 
        2.22736       0.0749859       0.0685047 
        2.23349       0.0744508        0.068045 
        2.23962       0.0741083       0.0675892 
        2.24577       0.0735017       0.0671372 
         2.2519       0.0730959         0.06669 
        2.25802        0.072626       0.0662476 
        2.26417       0.0722137       0.0658079 
        2.27031       0.0717084       0.0653719 
        2.27644       0.0712961       0.0649411 
        2.28257       0.0708742       0.0645142 
        2.28872       0.0704683       0.0640904 
        2.29486       0.0701857       0.0636704 
        2.30099       0.0695868       0.0632551 
        2.30712       0.0691667       0.0628433 
        2.31326       0.0686932       0.0624345 
         2.3194       0.0685061       0.0620296 
        2.32553       0.0680031       0.0616289 
        2.33166       0.0677418        0.061232 
         2.3378       0.0672861        0.060838 
        2.34394       0.0668141       0.0604474 
        2.35007       0.0663996       0.0600607 
        2.35619       0.0659166       0.0596779 
        2.36233       0.0656518       0.0592976 
        2.36848       0.0653973       0.0589197 
        2.37462       0.0648581        0.058546 
        2.38075       0.0645553       0.0581759 
        2.38689       0.0641922       0.0578086 
        2.39303        0.063879       0.0574446 
        2.39916        0.063428       0.0570841 
        2.40529       0.0631016       0.0567267 
        2.41143       0.0626765       0.0563722 
        2.41757       0.0623542       0.0560205 
         2.4237       0.0620803       0.0556724 
        2.42983       0.0617268       0.0553273 
        2.43598       0.0614549       0.0549843 
        2.44211        0.060961       0.0546447 
        2.44823       0.0607053       0.0543087 
        2.45437       0.0603018       0.0539747 
        2.46052       0.0600302       0.0536432 
        2.46665       0.0596187       0.0533151 
        2.47279       0.0592799       0.0529898 
        2.47892       0.0588592        0.052667 
        2.48507       0.0586107       0.0523466 
         2.4912        0.058319       0.0520295 
