# k  (h/Mpc)    P(k)  (Mpc/h)^3    P_linear(k)  (Mpc/h)^3
     0.00783031         63.9275         71.3079 
       0.013688          79.048         87.7837 
       0.019231         80.0048         88.4951 
      0.0249154         73.5144         81.3818 
      0.0312784         63.4872         70.0543 
      0.0375637         53.9386         59.4067 
      0.0433917         46.8768         51.6508 
      0.0492413         41.8727          46.117 
      0.0555754         38.1521         42.0739 
      0.0619321         35.4992          39.099 
       0.067871         33.0776         36.5068 
      0.0738098         30.4703         33.6416 
      0.0800417         27.4036         30.2642 
      0.0862327         24.2819         26.7823 
      0.0921407         21.5002         23.6923 
      0.0982031         19.0922         21.0444 
       0.104506         17.2537         18.9827 
       0.110769         15.9646         17.5756 
       0.116806         15.0903         16.6466 
       0.122832         14.4382         15.9156 
       0.129052         13.7293         15.1576 
       0.135211         12.9233         14.2747 
       0.141259         12.0207         13.2606 
       0.147318         11.0463         12.1682 
       0.153489         10.0635         11.0895 
       0.159709         9.20532         10.1416 
       0.165845          8.5505         9.39985 
       0.171974         8.03099         8.85164 
       0.178125         7.66908         8.45139 
       0.184229         7.38648          8.1362 
        0.19034         7.09602         7.83561 
       0.196428         6.80271         7.50342 
       0.202534         6.47049         7.11992 
       0.208729         6.07319         6.69195 
       0.214876         5.67444         6.26053 
       0.220989         5.32926         5.86005 
       0.227147         4.99822         5.51165 
        0.23329         4.74227         5.22891 
       0.239377         4.54093         5.00634 
       0.245482         4.37159         4.82344 
       0.251667         4.22839         4.65753 
       0.257832         4.07298         4.49195 
       0.263955         3.91616         4.31608 
       0.270079         3.74639         4.12724 
        0.27624         3.57442         3.93046 
       0.282372         3.40034         3.73859 
        0.28843         3.23499         3.56266 
       0.294538          3.0933         3.40557 
       0.300721         2.97403         3.26875 
        0.30691         2.86209         3.15085 
       0.313033          2.7675         3.04699 
       0.319153          2.6695         2.94911 
       0.325316         2.59392         2.85117 
        0.33145         2.50156         2.75157 
       0.337538         2.40955         2.65075 
       0.343633         2.31598         2.55008 
       0.349808         2.22881         2.45148 
       0.355968         2.14712         2.35952 
       0.362074         2.06945         2.27607 
       0.368217         2.00084         2.20022 
       0.374374         1.93362         2.13091 
       0.380519         1.87924         2.06651 
       0.386598         1.82502         2.00559 
       0.392688         1.77277         1.94564 
        0.39888         1.71569          1.8852 
       0.405048         1.66219         1.82559 
       0.411186          1.6102         1.76744 
       0.417313          1.5575         1.71157 
       0.423458         1.51182         1.65846 
       0.429607         1.46402         1.60852 
       0.435692         1.42198         1.56236 
       0.441815         1.38255          1.5187 
       0.447964         1.34775         1.47698 
       0.454126          1.3081         1.43673 
       0.460267         1.27193         1.39777 
       0.466387         1.23694         1.35978 
        0.47254         1.20367          1.3224 
       0.478662         1.17208         1.28628 
       0.484765          1.1392         1.25156 
       0.490885         1.10984         1.21817 
       0.497035         1.08343         1.18611 
       0.503198         1.05371         1.15552 
       0.509342           1.029         1.12641 
       0.515458         1.00169         1.09856 
       0.521598        0.977506         1.07152 
       0.527764        0.951936         1.04515 
       0.533884        0.931697         1.01974 
           0.54        0.908721        0.995074 
       0.546137          0.8876        0.971031 
       0.552299        0.865652        0.947644 
       0.558452        0.843927        0.925095 
       0.564573        0.825365        0.903489 
       0.570708        0.806493        0.882653 
       0.576825        0.787836        0.862621 
       0.582926        0.771583        0.843299 
       0.589034        0.751687        0.824536 
       0.595184        0.735585        0.806183 
       0.601379        0.719829        0.788233 
       0.607522        0.705256        0.770954 
       0.613639        0.691059        0.754257 
       0.619772        0.674348        0.738017 
       0.625918        0.660502        0.722231 
       0.632068        0.647445        0.706908 
       0.638161        0.633368        0.692179 
         0.6443        0.620291        0.677777 
       0.650464        0.606525        0.663748 
       0.656582        0.594999        0.650229 
       0.662703         0.58336        0.637092 
       0.668861        0.572674        0.624249 
       0.675024        0.560537        0.611751 
       0.681124        0.548385        0.599721 
       0.687237        0.538962        0.587987 
       0.693381        0.528829         0.57651 
       0.699536        0.517015        0.565319 
       0.705665        0.507364        0.554474 
       0.711789        0.498929        0.543927 
       0.717957        0.488569        0.533585 
        0.72409        0.480128        0.523574 
       0.730186        0.470675        0.513886 
       0.736317        0.463282        0.504394 
       0.742472        0.454465         0.49511 
       0.748622        0.446063        0.486073 
        0.75476        0.437273        0.477283 
       0.760888        0.429482        0.468725 
       0.767043        0.423629        0.460345 
       0.773185        0.415138        0.452189 
       0.779291        0.407808        0.444279 
       0.785407        0.401097        0.436547 
       0.791564        0.394229        0.428953 
       0.797719        0.387737        0.421544 
       0.803834        0.381342        0.414359 
       0.809972        0.374595        0.407317 
       0.816124        0.368186        0.400424 
       0.822261        0.361702        0.393711 
       0.828378        0.356251        0.387173 
       0.834502        0.350707         0.38078 
       0.840667        0.344329         0.37449 
       0.846816        0.338949        0.368362 
       0.852925        0.334261        0.362411 
       0.859047        0.328901        0.356579 
       0.865192        0.323048        0.350858 
       0.871341        0.317815         0.34526 
       0.877463        0.313727         0.33981 
       0.883569        0.308422        0.334493 
       0.889708        0.303719        0.329263 
       0.895864        0.298866        0.324132 
       0.902008        0.294319        0.319123 
       0.908149        0.289711        0.314223 
       0.914301         0.28468        0.309418 
       0.920448        0.280864         0.30472 
       0.926574        0.276525        0.300136 
       0.932687        0.272249        0.295657 
       0.938823        0.269092        0.291254 
       0.944975        0.264962        0.286931 
       0.951105        0.261195        0.282712 
       0.957225        0.257845        0.278586 
       0.963368        0.253806        0.274528 
       0.969511        0.249802        0.270552 
       0.975621        0.246284        0.266677 
       0.981748        0.243518        0.262868 
       0.987916        0.239849         0.25911 
        0.99406        0.236294         0.25544 
        1.00019        0.233352        0.251848 
        1.00632        0.229613         0.24833 
        1.01246          0.2263        0.244874 
        1.01859        0.223616         0.24149 
        1.02471        0.220586        0.238175 
        1.03085         0.21807         0.23491 
        1.03698        0.214707        0.231715 
        1.04314        0.211895        0.228565 
        1.04929        0.208911        0.225482 
        1.05541        0.206559        0.222469 
        1.06154        0.203515        0.219503 
        1.06769        0.200666        0.216588 
        1.07382        0.198245        0.213735 
        1.07993        0.195475         0.21094 
        1.08607        0.193562        0.208184 
        1.09222         0.19069        0.205475 
        1.09836          0.1887        0.202817 
        1.10449        0.186265         0.20021 
        1.11063         0.18349        0.197646 
        1.11677        0.181114        0.195128 
         1.1229          0.1791        0.192659 
        1.12903        0.176764         0.19023 
        1.13518        0.174784        0.187841 
        1.14131        0.172466        0.185495 
        1.14745         0.16993        0.183191 
        1.15359        0.168178        0.180926 
        1.15973        0.165851        0.178698 
        1.16584        0.164279        0.176518 
        1.17197        0.162261        0.174371 
        1.17811        0.160516        0.172254 
        1.18424        0.158841        0.170178 
        1.19038        0.156672         0.16813 
        1.19652        0.154457        0.166118 
        1.20267        0.153126        0.164138 
        1.20881        0.151334        0.162191 
        1.21495        0.149727        0.160279 
        1.22108        0.147733        0.158398 
         1.2272        0.146264        0.156552 
        1.23334        0.144462        0.154731 
        1.23949         0.14285        0.152935 
        1.24562        0.141242        0.151172 
        1.25174        0.139737        0.149441 
        1.25789        0.138412        0.147731 
        1.26402        0.136424        0.146051 
        1.27014        0.135126        0.144401 
        1.27628        0.133689        0.142773 
        1.28244        0.131944        0.141166 
        1.28858         0.13065        0.139586 
        1.29471        0.129522        0.138035 
        1.30084        0.127805        0.136508 
        1.30697        0.126483        0.135002 
        1.31312        0.124833        0.133517 
        1.31925        0.123641        0.132059 
        1.32537        0.122461        0.130624 
        1.33151        0.121221        0.129206 
        1.33765        0.119962         0.12781 
        1.34378        0.118596        0.126437 
        1.34992        0.117315        0.125083 
        1.35606        0.116119        0.123746 
         1.3622        0.114975        0.122432 
        1.36833        0.113737        0.121139 
        1.37445        0.112335        0.119866 
        1.38059        0.111329        0.118607 
        1.38675        0.110502        0.117364 
        1.39288        0.109271        0.116143 
        1.39901        0.108112        0.114941 
        1.40515        0.107199        0.113752 
         1.4113        0.105838        0.112581 
        1.41742        0.104849        0.111432 
        1.42355        0.103959        0.110296 
         1.4297        0.102807        0.109172 
        1.43585        0.101832        0.108065 
        1.44198        0.100925        0.106977 
        1.44809       0.0998352        0.105907 
        1.45423       0.0989252        0.104847 
        1.46036        0.097977        0.103804 
        1.46649       0.0972156        0.102774 
        1.47263       0.0961445        0.101758 
        1.47877        0.095014        0.100756 
        1.48491       0.0942744       0.0997658 
        1.49104       0.0932427       0.0987912 
        1.49718       0.0922831       0.0978289 
        1.50333       0.0916826       0.0968779 
        1.50947       0.0906577       0.0959416 
         1.5156       0.0898238        0.095019 
        1.52172        0.089002       0.0941086 
        1.52787       0.0881764       0.0932083 
          1.534       0.0872579       0.0923209 
        1.54013       0.0865008        0.091446 
        1.54627        0.085894       0.0905809 
        1.55241       0.0849221       0.0897269 
        1.55855        0.084087       0.0888851 
        1.56467       0.0835947       0.0880565 
         1.5708       0.0827535       0.0872361 
        1.57695       0.0819359        0.086425 
        1.58308       0.0811725       0.0856262 
        1.58922        0.080515       0.0848369 
        1.59535        0.079781       0.0840579 
         1.6015       0.0789974       0.0832876 
        1.60764       0.0784072       0.0825274 
        1.61376        0.077618       0.0817788 
        1.61989       0.0770062       0.0810389 
        1.62604       0.0763966       0.0803065 
        1.63218       0.0757081       0.0795837 
        1.63831       0.0750187       0.0788715 
        1.64444       0.0744075       0.0781677 
        1.65059       0.0737963        0.077471 
        1.65673       0.0731725       0.0767834 
        1.66285       0.0726362       0.0761062 
        1.66898       0.0719639       0.0754369 
        1.67512       0.0712533       0.0747744 
        1.68127       0.0706192       0.0741193 
         1.6874       0.0701183       0.0734735 
        1.69353       0.0693854       0.0728358 
        1.69967       0.0690663       0.0722041 
        1.70581       0.0682271       0.0715803 
        1.71193       0.0677378       0.0709661 
        1.71806       0.0671283       0.0703579 
        1.72421       0.0667786       0.0697556 
        1.73035       0.0660783       0.0691611 
        1.73649       0.0656552       0.0685736 
        1.74262       0.0650582       0.0679935 
        1.74876       0.0645063       0.0674197 
        1.75489       0.0641014       0.0668537 
        1.76101         0.06348       0.0662944 
        1.76715       0.0629369       0.0657407 
        1.77329       0.0623793       0.0651927 
        1.77943       0.0619706       0.0646508 
        1.78557       0.0615122       0.0641158 
        1.79171       0.0610214       0.0635868 
        1.79785       0.0605479       0.0630637 
        1.80399       0.0600321       0.0625466 
        1.81012       0.0595947        0.062036 
        1.81625       0.0590967       0.0615313 
        1.82239       0.0586157       0.0610316 
        1.82853       0.0581791       0.0605376 
        1.83466       0.0577273       0.0600496 
        1.84078       0.0572931       0.0595675 
        1.84692       0.0567908         0.05909 
        1.85306       0.0564415       0.0586171 
         1.8592       0.0559136       0.0581501 
        1.86533       0.0555819       0.0576885 
        1.87147       0.0551064       0.0572314 
        1.87761       0.0548039        0.056779 
        1.88375       0.0543812       0.0563321 
        1.88988       0.0538749       0.0558905 
        1.89601       0.0535049       0.0554533 
        1.90215       0.0530947       0.0550205 
        1.90829       0.0526468       0.0545926 
        1.91442       0.0523895       0.0541691 
        1.92056       0.0519164       0.0537505 
         1.9267       0.0515087        0.053336 
        1.93284       0.0511522       0.0529255 
        1.93897       0.0507808       0.0525202 
        1.94509       0.0504663       0.0521199 
        1.95123       0.0500459       0.0517229 
        1.95737       0.0497035       0.0513297 
        1.96349        0.049309       0.0509416 
        1.96964       0.0489738       0.0505564 
        1.97578       0.0486045        0.050175 
        1.98192       0.0483125       0.0497984 
        1.98805       0.0479375       0.0494255 
        1.99419       0.0475494       0.0490565 
        2.00033       0.0472187       0.0486911 
        2.00647       0.0470125       0.0483295 
         2.0126       0.0465514       0.0479722 
        2.01874       0.0463298        0.047618 
        2.02488       0.0459828       0.0472671 
        2.03101       0.0456656       0.0469203 
        2.03714       0.0452444       0.0465774 
        2.04328       0.0450759       0.0462375 
        2.04941       0.0446333       0.0459013 
        2.05554        0.044431       0.0455687 
        2.06167       0.0441397       0.0452389 
        2.06781       0.0437757       0.0449124 
        2.07396       0.0435052       0.0445886 
        2.08009       0.0432092       0.0442686 
        2.08622       0.0429348       0.0439521 
        2.09237       0.0426273       0.0436381 
        2.09851       0.0423289       0.0433271 
        2.10464       0.0421072       0.0430197 
        2.11077        0.041769       0.0427156 
        2.11691       0.0414662       0.0424137 
        2.12305       0.0412171       0.0421148 
        2.12918       0.0409882       0.0418195 
        2.13531       0.0406487        0.041527 
        2.14145       0.0403635       0.0412366 
         2.1476       0.0401109       0.0409486 
        2.15372       0.0399246       0.0406649 
        2.15985       0.0395871       0.0403835 
        2.16599        0.039328        0.040104 
        2.17213       0.0390888       0.0398275 
        2.17827       0.0388218       0.0395536 
         2.1844       0.0386397       0.0392826 
        2.19054         0.03836        0.039014 
        2.19666         0.03808       0.0387483 
         2.2028       0.0378214       0.0384848 
        2.20893       0.0376459       0.0382237 
        2.21508       0.0374028       0.0379647 
        2.22122       0.0371165        0.037708 
        2.22736       0.0369227       0.0374542 
        2.23349       0.0366785       0.0372029 
        2.23962       0.0365131       0.0369537 
        2.24577       0.0362325       0.0367066 
         2.2519       0.0360099        0.036462 
        2.25802       0.0357822       0.0362202 
        2.26417       0.0355595       0.0359798 
        2.27031       0.0353003       0.0357414 
        2.27644       0.0350745       0.0355059 
        2.28257        0.034919       0.0352725 
        2.28872        0.034704       0.0350407 
        2.29486       0.0345211       0.0348111 
        2.30099       0.0342796       0.0345841 
        2.30712       0.0339882       0.0343589 
        2.31326       0.0338293       0.0341354 
         2.3194       0.0336832        0.033914 
        2.32553        0.033441        0.033695 
        2.33166       0.0332974       0.0334779 
         2.3378       0.0330783       0.0332625 
        2.34394       0.0328404        0.033049 
        2.35007       0.0326266       0.0328376 
        2.35619       0.0323871       0.0326283 
        2.36233       0.0322859       0.0324203 
        2.36848       0.0321434       0.0322137 
        2.37462        0.031887       0.0320094 
        2.38075       0.0317035        0.031807 
        2.38689       0.0315266       0.0316063 
        2.39303       0.0313605       0.0314072 
        2.39916       0.0311585       0.0312101 
        2.40529       0.0310037       0.0310147 
        2.41143       0.0307817       0.0308209 
        2.41757       0.0306079       0.0306286 
         2.4237       0.0304895       0.0304383 
        2.42983       0.0303219       0.0302496 
        2.43598       0.0301644       0.0300621 
        2.44211       0.0299284       0.0298764 
        2.44823       0.0297798       0.0296927 
        2.45437       0.0296034       0.0295101 
        2.46052       0.0294448       0.0293289 
        2.46665       0.0292397       0.0291494 
        2.47279       0.0290728       0.0289716 
        2.47892       0.0288969       0.0287951 
        2.48507       0.0287366         0.02862 
         2.4912       0.0286074       0.0284466 
