# k  (h/Mpc)    Pcb(k)  (Mpc/h)^3    Pcb_linear(k)  (Mpc/h)^3
     0.00783031         9417.86          9540.2 
       0.013688         11807.1         11736.1 
       0.019231         11848.5         11829.2 
      0.0249154         10706.3         10877.7 
      0.0312784         9294.88         9363.24 
      0.0375637         7949.87         7940.02 
      0.0433917         6819.17         6903.42 
      0.0492413         6137.97         6163.84 
      0.0555754         5497.44         5623.48 
      0.0619321            5242         5225.91 
       0.067871         4781.11         4879.46 
      0.0738098         4404.96         4496.52 
      0.0800417         3930.74         4045.09 
      0.0862327         3521.33          3579.7 
      0.0921407         3162.76         3166.69 
      0.0982031         2798.87         2812.78 
       0.104506         2594.24         2537.22 
       0.110769         2397.74         2349.16 
       0.116806         2254.35            2225 
       0.122832         2161.38          2127.3 
       0.129052         2019.67         2025.99 
       0.135211         1909.49         1907.97 
       0.141259         1807.11         1772.43 
       0.147318         1681.88         1626.42 
       0.153489          1529.6         1482.23 
       0.159709         1429.44         1355.53 
       0.165845         1358.76         1256.39 
       0.171974         1276.95         1183.12 
       0.178125         1219.33         1129.62 
       0.184229         1174.01          1087.5 
        0.19034         1103.49         1047.32 
       0.196428         1081.65         1002.92 
       0.202534         1042.08         951.665 
       0.208729         984.785          894.46 
       0.214876         929.437         836.794 
       0.220989          893.76         783.267 
       0.227147         846.093         736.696 
        0.23329         810.485         698.903 
       0.239377         792.487         669.155 
       0.245482         741.301          644.71 
       0.251667         735.143         622.534 
       0.257832         708.784         600.403 
       0.263955         684.501         576.897 
       0.270079         658.555         551.655 
        0.27624         648.678         525.354 
       0.282372         620.985         499.707 
        0.28843         604.679         476.192 
       0.294538         574.893         455.195 
       0.300721          570.87         436.907 
        0.30691         544.833         421.149 
       0.313033          533.91         407.267 
       0.319153         517.237         394.183 
       0.325316         502.416         381.093 
        0.33145         487.519         367.782 
       0.337538         480.692         354.305 
       0.343633         465.042         340.849 
       0.349808         449.318         327.671 
       0.355968         444.556         315.378 
       0.362074         435.524         304.224 
       0.368217         423.522         294.086 
       0.374374         406.671         284.822 
       0.380519         403.066         276.215 
       0.386598         392.958         268.071 
       0.392688         389.813         260.058 
        0.39888         378.777          251.98 
       0.405048         370.543         244.013 
       0.411186         363.369          236.24 
       0.417313         356.528         228.772 
       0.423458          349.77         221.673 
       0.429607         342.661         214.999 
       0.435692          333.88         208.828 
       0.441815         331.235         202.993 
       0.447964         324.598         197.416 
       0.454126         313.975         192.037 
       0.460267         309.763          186.83 
       0.466387         306.146         181.751 
        0.47254         299.552         176.755 
       0.478662         298.476         171.927 
       0.484765         288.908         167.287 
       0.490885         285.492         162.824 
       0.497035         280.919         158.538 
       0.503198         275.123         154.449 
       0.509342         272.639         150.558 
       0.515458         269.119         146.836 
       0.521598         263.981         143.221 
       0.527764          259.82         139.698 
       0.533884         257.035         136.301 
           0.54         253.248         133.004 
       0.546137         251.952          129.79 
       0.552299          246.76         126.664 
       0.558452         244.393          123.65 
       0.564573         240.549         120.763 
       0.570708         235.999         117.977 
       0.576825          232.77           115.3 
       0.582926         229.931         112.717 
       0.589034         227.452         110.209 
       0.595184         225.075         107.756 
       0.601379         222.595         105.357 
       0.607522         218.378         103.047 
       0.613639         217.209         100.816 
       0.619772         212.398          98.645 
       0.625918         210.927          96.535 
       0.632068         208.103          94.487 
       0.638161         206.975         92.5181 
         0.6443          203.67         90.5932 
       0.650464         201.671          88.718 
       0.656582         199.893          86.911 
       0.662703         198.003         85.1551 
       0.668861          194.66         83.4385 
       0.675024         192.409         81.7681 
       0.681124          191.57           80.16 
       0.687237         188.641         78.5916 
       0.693381         185.895         77.0576 
       0.699536         184.618         75.5618 
       0.705665         183.868         74.1123 
       0.711789          180.73         72.7024 
       0.717957         180.088         71.3201 
        0.72409          177.72         69.9821 
       0.730186         175.297         68.6871 
       0.736317         173.834         67.4184 
       0.742472         172.892         66.1776 
       0.748622         171.336         64.9695 
        0.75476         169.904         63.7946 
       0.760888         167.544         62.6508 
       0.767043         167.006         61.5308 
       0.773185         165.186         60.4406 
       0.779291         162.378         59.3833 
       0.785407         161.794         58.3499 
       0.791564         160.365         57.3348 
       0.797719         158.066         56.3445 
       0.803834         157.335         55.3841 
       0.809972         155.847         54.4428 
       0.816124         155.619         53.5216 
       0.822261         153.602         52.6243 
       0.828378         152.193         51.7504 
       0.834502         151.937         50.8958 
       0.840667         149.575         50.0552 
       0.846816         148.271         49.2361 
       0.852925         147.544         48.4406 
       0.859047          145.83         47.6612 
       0.865192         144.832         46.8965 
       0.871341         143.479         46.1482 
       0.877463         142.357         45.4198 
       0.883569         141.532         44.7091 
       0.889708         140.367           44.01 
       0.895864         138.868         43.3242 
       0.902008         138.075         42.6546 
       0.908149          137.45         41.9997 
       0.914301          135.95         41.3575 
       0.920448         134.936         40.7295 
       0.926574          134.18         40.1168 
       0.932687         133.795         39.5181 
       0.938823         131.888         38.9296 
       0.944975         130.636         38.3518 
       0.951105         130.131         37.7879 
       0.957225         128.685         37.2364 
       0.963368          127.58         36.6941 
       0.969511          127.31         36.1626 
       0.975621         126.659         35.6446 
       0.981748         125.864         35.1355 
       0.987916         124.458         34.6332 
        0.99406         123.661         34.1426 
        1.00019          123.17         33.6626 
        1.00632         122.094         33.1923 
        1.01246         121.345         32.7304 
        1.01859          120.14         32.2781 
        1.02471         119.654         31.8349 
        1.03085          118.47         31.3986 
        1.03698         117.918         30.9715 
        1.04314         116.838         30.5505 
        1.04929         116.142         30.1384 
        1.05541         115.428         29.7356 
        1.06154          114.77         29.3393 
        1.06769         114.554         28.9496 
        1.07382         113.701         28.5683 
        1.07993          112.76         28.1947 
        1.08607         111.935         27.8264 
        1.09222         111.527         27.4642 
        1.09836         110.567          27.109 
        1.10449         109.832         26.7605 
        1.11063         109.126         26.4178 
        1.11677         108.732         26.0812 
         1.1229         107.527         25.7512 
        1.12903         106.825         25.4265 
        1.13518         106.964         25.1073 
        1.14131         105.925         24.7937 
        1.14745         105.193         24.4857 
        1.15359         104.548         24.1829 
        1.15973         104.216         23.8851 
        1.16584         103.228         23.5937 
        1.17197         102.743         23.3068 
        1.17811         102.099         23.0238 
        1.18424         101.519         22.7463 
        1.19038         101.033         22.4727 
        1.19652         100.418         22.2036 
        1.20267         99.6412          21.939 
        1.20881         99.0512         21.6788 
        1.21495         98.4398         21.4232 
        1.22108         97.9713         21.1718 
         1.2272         97.1049          20.925 
        1.23334         96.7715         20.6816 
        1.23949         95.9363         20.4416 
        1.24562         95.6513          20.206 
        1.25174         94.9082         19.9745 
        1.25789         94.5376          19.746 
        1.26402         94.0622         19.5215 
        1.27014          93.358          19.301 
        1.27628         93.0027         19.0833 
        1.28244         92.3219         18.8685 
        1.28858         92.0551         18.6574 
        1.29471         91.2983           18.45 
        1.30084         90.8506         18.2459 
        1.30697         90.3257         18.0447 
        1.31312         89.9237         17.8462 
        1.31925         89.3014         17.6513 
        1.32537         88.9769         17.4595 
        1.33151         88.1253         17.2699 
        1.33765         87.7219         17.0833 
        1.34378         87.2105         16.8998 
        1.34992         87.0185         16.7188 
        1.35606         86.4639         16.5402 
         1.3622         85.6883         16.3644 
        1.36833         85.5528         16.1917 
        1.37445         84.9465         16.0215 
        1.38059         84.4296         15.8533 
        1.38675         83.8777         15.6871 
        1.39288         83.4642         15.5239 
        1.39901          83.292         15.3632 
        1.40515         82.7212         15.2044 
         1.4113         82.1455         15.0479 
        1.41742         82.0711         14.8942 
        1.42355         81.3151         14.7423 
         1.4297         81.0005         14.5922 
        1.43585          80.362         14.4442 
        1.44198         80.0902         14.2988 
        1.44809          79.648         14.1557 
        1.45423         79.1829          14.014 
        1.46036         79.0029         13.8746 
        1.46649         78.4694          13.737 
        1.47263         77.9864         13.6011 
        1.47877         77.8103         13.4672 
        1.48491         77.2526         13.3349 
        1.49104         76.8566         13.2046 
        1.49718         76.3857          13.076 
        1.50333         76.0077         12.9489 
        1.50947          75.611         12.8237 
         1.5156         75.2689         12.7004 
        1.52172         74.8645         12.5787 
        1.52787         74.6916         12.4584 
          1.534         74.1451         12.3398 
        1.54013         73.6328         12.2228 
        1.54627         73.4091         12.1072 
        1.55241          72.942         11.9931 
        1.55855         72.6455         11.8805 
        1.56467         72.1621         11.7698 
         1.5708         71.9418         11.6601 
        1.57695         71.7171         11.5517 
        1.58308         71.0182          11.445 
        1.58922         70.9514         11.3395 
        1.59535         70.6854         11.2353 
         1.6015         70.0348         11.1324 
        1.60764          69.835         11.0308 
        1.61376         69.4429         10.9307 
        1.61989         69.0668         10.8318 
        1.62604         68.8638         10.7339 
        1.63218         68.5475         10.6373 
        1.63831           68.04         10.5421 
        1.64444         67.7472          10.448 
        1.65059         67.3105         10.3549 
        1.65673         67.0902          10.263 
        1.66285         66.7176         10.1725 
        1.66898         66.3963          10.083 
        1.67512         65.9722         9.99448 
        1.68127         65.6861         9.90692 
         1.6874         65.4379          9.8206 
        1.69353         65.1336         9.73536 
        1.69967         64.6942         9.65093 
        1.70581         64.5765         9.56754 
        1.71193         64.3615         9.48546 
        1.71806         63.7212         9.40416 
        1.72421         63.5854         9.32366 
        1.73035         63.2434         9.24419 
        1.73649           62.86         9.16567 
        1.74262         62.6891         9.08813 
        1.74876         62.3545         9.01143 
        1.75489         61.9678         8.93578 
        1.76101         61.7823         8.86102 
        1.76715         61.3552         8.78702 
        1.77329         61.1584         8.71377 
        1.77943          60.707         8.64133 
        1.78557          60.587         8.56983 
        1.79171         60.2251         8.49912 
        1.79785         59.9978          8.4292 
        1.80399          59.741         8.36008 
        1.81012         59.5076         8.29183 
        1.81625         58.9741         8.22438 
        1.82239         58.7811         8.15758 
        1.82853         58.4489         8.09156 
        1.83466         58.2597         8.02633 
        1.84078         57.9005         7.96189 
        1.84692         57.5504         7.89806 
        1.85306         57.3688         7.83485 
         1.8592         56.9666         7.77244 
        1.86533         56.8363         7.71074 
        1.87147          56.507         7.64964 
        1.87761         56.2903         7.58918 
        1.88375         56.0116         7.52944 
        1.88988         55.9008         7.47041 
        1.89601         55.4823         7.41198 
        1.90215         55.2382         7.35413 
        1.90829         55.0807         7.29693 
        1.91442         54.7334         7.24033 
        1.92056         54.3606         7.18438 
         1.9267         54.1711         7.12897 
        1.93284         53.9229         7.07411 
        1.93897         53.6307         7.01993 
        1.94509         53.3133         6.96643 
        1.95123         53.1923         6.91336 
        1.95737         52.9665         6.86081 
        1.96349         52.5986         6.80893 
        1.96964          52.545         6.75745 
        1.97578         52.1804         6.70647 
        1.98192         51.9536         6.65613 
        1.98805         51.8184          6.6063 
        1.99419         51.4274         6.55697 
        2.00033         51.2059         6.50813 
        2.00647         50.9931          6.4598 
         2.0126         50.6533         6.41204 
        2.01874         50.5139          6.3647 
        2.02488         50.3475         6.31779 
        2.03101         50.0334         6.27144 
        2.03714         49.7835         6.22561 
        2.04328         49.5697         6.18018 
        2.04941         49.2653         6.13524 
        2.05554         48.9704         6.09078 
        2.06167         48.8952         6.04671 
        2.06781         48.6874         6.00306 
        2.07396         48.3908         5.95978 
        2.08009         48.2297         5.91701 
        2.08622         47.9113         5.87471 
        2.09237         47.7095         5.83273 
        2.09851         47.5482         5.79116 
        2.10464         47.2921         5.75007 
        2.11077         47.1033         5.70942 
        2.11691         46.8365         5.66908 
        2.12305         46.6082         5.62913 
        2.12918         46.3599         5.58965 
        2.13531         46.1407         5.55055 
        2.14145         45.9481         5.51174 
         2.1476         45.7869         5.47325 
        2.15372            45.5         5.43532 
        2.15985         45.2983         5.39772 
        2.16599         45.1783         5.36036 
        2.17213         44.9956          5.3234 
        2.17827         44.7355         5.28679 
         2.1844         44.4933         5.25056 
        2.19054         44.2427         5.21466 
        2.19666         44.0775         5.17915 
         2.2028         43.9037         5.14393 
        2.20893         43.7661         5.10903 
        2.21508         43.5814         5.07441 
        2.22122         43.2985          5.0401 
        2.22736         43.1369         5.00618 
        2.23349         42.9907         4.97258 
        2.23962         42.6124         4.93928 
        2.24577         42.4668         4.90625 
         2.2519         42.2454         4.87357 
        2.25802         42.2013         4.84123 
        2.26417         41.9407         4.80911 
        2.27031         41.8005         4.77724 
        2.27644         41.4932         4.74576 
        2.28257          41.366         4.71456 
        2.28872         41.0782         4.68359 
        2.29486         40.9819          4.6529 
        2.30099          40.818         4.62255 
        2.30712         40.6272         4.59246 
        2.31326         40.4257         4.56258 
         2.3194         40.2038         4.53299 
        2.32553         40.0651         4.50371 
        2.33166         39.9014          4.4747 
         2.3378         39.6053         4.44591 
        2.34394         39.4013         4.41736 
        2.35007         39.2583         4.38911 
        2.35619         39.1669         4.36114 
        2.36233         39.0396         4.33334 
        2.36848         38.7206         4.30573 
        2.37462         38.6354         4.27842 
        2.38075         38.4523         4.25137 
        2.38689         38.3711         4.22453 
        2.39303         38.1267         4.19793 
        2.39916         37.9137         4.17158 
        2.40529         37.6908         4.14547 
        2.41143         37.6286         4.11956 
        2.41757         37.4802         4.09385 
         2.4237         37.3131         4.06842 
        2.42983         37.1215          4.0432 
        2.43598         36.8934         4.01813 
        2.44211         36.7462         3.99332 
        2.44823         36.6078         3.96877 
        2.45437         36.4914         3.94435 
        2.46052         36.1987         3.92013 
        2.46665         36.1302         3.89615 
        2.47279         35.9718         3.87238 
        2.47892         35.7662         3.84879 
        2.48507         35.6319         3.82538 
         2.4912          35.485          3.8022 
