# k  (h/Mpc)    P(k)  (Mpc/h)^3    P_linear(k)  (Mpc/h)^3
     0.00783031         14240.1         14455.5 
       0.013688         17894.6         17756.8 
       0.019231           17903         17883.2 
      0.0249154         16095.8         16436.3 
      0.0312784         13982.8           14143 
      0.0375637         11980.6         11990.4 
      0.0433917         10237.4         10423.4 
      0.0492413          9232.3         9305.54 
      0.0555754         8224.85         8488.94 
      0.0619321         7884.67         7888.19 
       0.067871         7150.42         7364.82 
      0.0738098         6590.74         6786.52 
      0.0800417         5869.61         6104.96 
      0.0862327         5274.64          5402.4 
      0.0921407         4764.28         4778.98 
      0.0982031         4221.14         4244.77 
       0.104506         3935.99         3828.85 
       0.110769         3638.52         3544.99 
       0.116806         3428.81         3357.59 
       0.122832         3277.95         3210.12 
       0.129052         3051.01          3057.2 
       0.135211         2888.23         2879.09 
       0.141259         2747.06         2674.54 
       0.147318         2567.93         2454.19 
       0.153489         2338.72          2236.6 
       0.159709         2198.18         2045.41 
       0.165845         2104.11          1895.8 
       0.171974         1985.91         1785.23 
       0.178125         1892.77          1704.5 
       0.184229         1816.39         1640.93 
        0.19034         1715.35          1580.3 
       0.196428         1681.09          1513.3 
       0.202534         1616.71         1435.96 
       0.208729         1536.21         1349.64 
       0.214876         1464.24         1262.62 
       0.220989         1410.51         1181.85 
       0.227147         1346.31         1111.58 
        0.23329         1291.87         1054.56 
       0.239377         1269.06         1009.67 
       0.245482         1189.05         972.781 
       0.251667         1182.32          939.32 
       0.257832         1136.28         905.924 
       0.263955         1098.71         870.455 
       0.270079         1059.16         832.369 
        0.27624         1046.55         792.682 
       0.282372         1002.24         753.984 
        0.28843         990.051         718.502 
       0.294538         939.808         686.821 
       0.300721          934.96         659.227 
        0.30691         896.074         635.448 
       0.313033         878.809         614.502 
       0.319153         859.987         594.762 
       0.325316         832.733         575.009 
        0.33145         812.319         554.923 
       0.337538         799.203         534.589 
       0.343633         778.485         514.286 
       0.349808         751.328           494.4 
       0.355968         746.343         475.853 
       0.362074         737.085         459.025 
       0.368217         714.941         443.727 
       0.374374          685.87         429.748 
       0.380519         685.534         416.762 
       0.386598         666.808         404.474 
       0.392688         664.492         392.384 
        0.39888         644.677         380.195 
       0.405048         634.401         368.174 
       0.411186         625.104         356.446 
       0.417313         612.313         345.178 
       0.423458         601.274         334.467 
       0.429607         592.474         324.395 
       0.435692         578.994         315.086 
       0.441815         574.186         306.281 
       0.447964         562.147         297.867 
       0.454126         553.437          289.75 
       0.460267         541.756         281.893 
       0.466387         535.679         274.231 
        0.47254         528.291         266.692 
       0.478662         525.442         259.407 
       0.484765         508.373         252.406 
       0.490885         504.598         245.673 
       0.497035          494.72         239.206 
       0.503198         490.003         233.036 
       0.509342         485.821         227.165 
       0.515458         481.664         221.549 
       0.521598         469.682         216.096 
       0.527764         461.524         210.779 
       0.533884          459.56         205.654 
           0.54         453.549         200.679 
       0.546137         451.249          195.83 
       0.552299         443.064         191.113 
       0.558452         440.713         186.566 
       0.564573         434.505         182.209 
       0.570708         428.261         178.007 
       0.576825         417.923         173.967 
       0.582926         417.582          170.07 
       0.589034         413.913         166.286 
       0.595184         410.276         162.585 
       0.601379         404.198         158.965 
       0.607522         398.525          155.48 
       0.613639         397.487         152.112 
       0.619772          388.41         148.837 
       0.625918         387.182         145.654 
       0.632068         381.145         142.564 
       0.638161         379.738         139.593 
         0.6443         373.178         136.688 
       0.650464         370.485         133.859 
       0.656582         367.993         131.133 
       0.662703         366.669         128.483 
       0.668861         360.203         125.893 
       0.675024         356.968         123.373 
       0.681124         354.355         120.947 
       0.687237         351.037          118.58 
       0.693381         346.098         116.266 
       0.699536          342.11         114.009 
       0.705665         340.069         111.822 
       0.711789         338.179         109.695 
       0.717957         335.401         107.609 
        0.72409         332.666          105.59 
       0.730186         328.637         103.636 
       0.736317         325.566         101.722 
       0.742472         323.984         99.8497 
       0.748622         320.625          98.027 
        0.75476         317.112         96.2543 
       0.760888         313.723         94.5285 
       0.767043         314.181         92.8385 
       0.773185         310.243         91.1937 
       0.779291          305.65         89.5983 
       0.785407         304.873         88.0391 
       0.791564          301.15         86.5075 
       0.797719         298.738         85.0134 
       0.803834         296.197         83.5643 
       0.809972         295.312         82.1441 
       0.816124         294.712         80.7541 
       0.822261         290.676         79.4002 
       0.828378         288.514         78.0818 
       0.834502         286.433         76.7923 
       0.840667         283.642         75.5239 
       0.846816         282.132          74.288 
       0.852925         280.383         73.0878 
       0.859047         278.348         71.9118 
       0.865192         275.081          70.758 
       0.871341         273.085          69.629 
       0.877463         271.884           68.53 
       0.883569         270.496         67.4576 
       0.889708         267.647         66.4029 
       0.895864         265.322         65.3682 
       0.902008         263.809         64.3578 
       0.908149         262.227         63.3696 
       0.914301         259.153         62.4007 
       0.920448         257.701         61.4531 
       0.926574         255.164         60.5287 
       0.932687         255.405         59.6254 
       0.938823         252.393         58.7374 
       0.944975         251.385         57.8657 
       0.951105         249.607         57.0148 
       0.957225         247.826         56.1827 
       0.963368         244.664         55.3644 
       0.969511          243.72         54.5626 
       0.975621         241.528          53.781 
       0.981748           241.4         53.0128 
       0.987916         239.385         52.2549 
        0.99406         236.267         51.5148 
        1.00019         236.123         50.7905 
        1.00632         234.486          50.081 
        1.01246         232.552          49.384 
        1.01859         232.798         48.7015 
        1.02471         229.157         48.0329 
        1.03085         227.542         47.3746 
        1.03698         226.701         46.7301 
        1.04314          224.46          46.095 
        1.04929         223.135         45.4732 
        1.05541         223.449         44.8655 
        1.06154         220.164         44.2674 
        1.06769          219.85         43.6794 
        1.07382         218.154         43.1041 
        1.07993           216.5         42.5405 
        1.08607         215.938         41.9847 
        1.09222         214.338         41.4383 
        1.09836         212.705         40.9024 
        1.10449         210.525         40.3766 
        1.11063          208.84         39.8595 
        1.11677         208.537         39.3517 
         1.1229         206.899         38.8536 
        1.12903         205.878         38.3638 
        1.13518         204.527         37.8821 
        1.14131         202.797          37.409 
        1.14745         202.731         36.9443 
        1.15359         200.914         36.4874 
        1.15973         199.528         36.0381 
        1.16584         197.998         35.5985 
        1.17197         197.841         35.1655 
        1.17811         195.722         34.7385 
        1.18424          194.72         34.3199 
        1.19038         194.196          33.907 
        1.19652         192.594         33.5011 
        1.20267          192.09         33.1018 
        1.20881         190.313         32.7092 
        1.21495         189.316         32.3235 
        1.22108         188.167         31.9442 
         1.2272         186.748         31.5719 
        1.23334         186.127         31.2047 
        1.23949          184.71         30.8425 
        1.24562         183.858          30.487 
        1.25174         182.424         30.1378 
        1.25789         181.211          29.793 
        1.26402          179.88         29.4542 
        1.27014         178.668         29.1215 
        1.27628         178.058         28.7931 
        1.28244         177.866          28.469 
        1.28858         175.886         28.1505 
        1.29471         174.513         27.8375 
        1.30084         174.078         27.5296 
        1.30697         172.594          27.226 
        1.31312         171.487         26.9265 
        1.31925         170.793         26.6324 
        1.32537         170.037         26.3431 
        1.33151         168.347         26.0571 
        1.33765         167.514         25.7754 
        1.34378         166.872         25.4986 
        1.34992         166.075         25.2256 
        1.35606         165.897          24.956 
         1.3622         164.146         24.6908 
        1.36833          162.65         24.4302 
        1.37445         162.058         24.1734 
        1.38059         160.903         23.9196 
        1.38675         160.359         23.6688 
        1.39288         159.451         23.4227 
        1.39901         159.208         23.1801 
        1.40515         157.397         22.9405 
         1.4113         156.587         22.7044 
        1.41742          155.58         22.4725 
        1.42355         154.803         22.2434 
         1.4297         153.846         22.0168 
        1.43585         152.989         21.7935 
        1.44198         152.204         21.5741 
        1.44809          151.55         21.3582 
        1.45423         150.687         21.1445 
        1.46036          149.62         20.9341 
        1.46649         148.629         20.7265 
        1.47263          147.77         20.5215 
        1.47877         147.077         20.3195 
        1.48491         145.618         20.1198 
        1.49104         145.611         19.9233 
        1.49718         144.149         19.7292 
        1.50333          143.61         19.5374 
        1.50947         142.979         19.3486 
         1.5156         141.998         19.1625 
        1.52172         141.231         18.9789 
        1.52787         140.134         18.7973 
          1.534          139.69         18.6184 
        1.54013         138.815         18.4419 
        1.54627         138.111         18.2675 
        1.55241         137.123         18.0952 
        1.55855          136.33         17.9255 
        1.56467         135.629         17.7584 
         1.5708         134.762         17.5929 
        1.57695          134.26         17.4294 
        1.58308         133.567         17.2683 
        1.58922         132.955         17.1091 
        1.59535         131.884          16.952 
         1.6015         131.479         16.7966 
        1.60764         130.702         16.6433 
        1.61376         129.878         16.4923 
        1.61989         129.096         16.3431 
        1.62604         128.274         16.1954 
        1.63218         127.927         16.0497 
        1.63831         126.937          15.906 
        1.64444         126.456         15.7641 
        1.65059         125.818         15.6236 
        1.65673         124.674         15.4849 
        1.66285         124.395         15.3484 
        1.66898         123.583         15.2134 
        1.67512         123.242         15.0798 
        1.68127         122.183         14.9477 
         1.6874         121.249         14.8174 
        1.69353         121.039         14.6888 
        1.69967         120.359         14.5614 
        1.70581           119.6         14.4356 
        1.71193         118.968         14.3117 
        1.71806         118.407         14.1891 
        1.72421         117.619         14.0676 
        1.73035         117.491         13.9477 
        1.73649         116.572         13.8293 
        1.74262         115.742         13.7123 
        1.74876         115.422         13.5965 
        1.75489         114.501         13.4824 
        1.76101         113.821         13.3696 
        1.76715           113.3         13.2579 
        1.77329          113.01         13.1474 
        1.77943         111.994         13.0381 
        1.78557         111.597         12.9302 
        1.79171         110.792         12.8235 
        1.79785         110.248         12.7181 
        1.80399         109.545         12.6138 
        1.81012         109.097         12.5108 
        1.81625         108.535          12.409 
        1.82239         108.199         12.3082 
        1.82853         107.413         12.2086 
        1.83466         106.692         12.1102 
        1.84078         106.355          12.013 
        1.84692          105.49         11.9167 
        1.85306         105.201         11.8213 
         1.8592         104.554         11.7271 
        1.86533         103.706          11.634 
        1.87147         103.356         11.5418 
        1.87761         102.745         11.4506 
        1.88375         102.013         11.3605 
        1.88988         101.677         11.2714 
        1.89601         101.017         11.1833 
        1.90215         100.541          11.096 
        1.90829         100.019         11.0097 
        1.91442         99.5251         10.9243 
        1.92056         98.8523         10.8399 
         1.9267          98.569         10.7563 
        1.93284         98.0169         10.6735 
        1.93897         97.4002         10.5917 
        1.94509         97.0093          10.511 
        1.95123          96.434         10.4309 
        1.95737         95.9251         10.3516 
        1.96349         95.3981         10.2734 
        1.96964         94.6332         10.1957 
        1.97578         94.2302         10.1188 
        1.98192         94.0661         10.0428 
        1.98805          93.217         9.96764 
        1.99419         92.9895         9.89322 
        2.00033         92.3849         9.81953 
        2.00647         91.9854         9.74661 
         2.0126         91.4053         9.67455 
        2.01874         90.8001         9.60312 
        2.02488          90.426         9.53234 
        2.03101         89.7934         9.46241 
        2.03714         89.2792         9.39325 
        2.04328         88.9968         9.32471 
        2.04941         88.5344         9.25691 
        2.05554         88.0148         9.18983 
        2.06167         87.6079         9.12333 
        2.06781         87.0152         9.05747 
        2.07396           86.62         8.99218 
        2.08009         86.3398         8.92764 
        2.08622         85.7356         8.86381 
        2.09237         85.2828         8.80048 
        2.09851         84.9316         8.73776 
        2.10464         84.4124         8.67576 
        2.11077          84.085         8.61443 
        2.11691         83.7222         8.55356 
        2.12305         83.0227         8.49328 
        2.12918         82.5868         8.43372 
        2.13531         82.3585         8.37473 
        2.14145         81.6034         8.31616 
         2.1476         81.2265         8.25809 
        2.15372         80.9704         8.20087 
        2.15985         80.5511         8.14413 
        2.16599         80.0671         8.08776 
        2.17213          79.677         8.03199 
        2.17827         79.2557         7.97676 
         2.1844         78.7777          7.9221 
        2.19054         78.6034         7.86793 
        2.19666         78.0726         7.81435 
         2.2028         77.7824         7.76121 
        2.20893         77.2556         7.70855 
        2.21508         76.8702         7.65632 
        2.22122         76.4683         7.60455 
        2.22736         76.1297         7.55338 
        2.23349         75.7337         7.50268 
        2.23962         75.3244         7.45243 
        2.24577         75.0076         7.40259 
         2.2519         74.6647         7.35328 
        2.25802         74.2196          7.3045 
        2.26417         73.7534         7.25603 
        2.27031         73.4947         7.20795 
        2.27644         73.0082         7.16045 
        2.28257         72.6048         7.11338 
        2.28872         72.2998         7.06664 
        2.29486         71.7607         7.02034 
        2.30099         71.3968         6.97454 
        2.30712          71.212         6.92914 
        2.31326         70.8722         6.88406 
         2.3194         70.4442         6.83942 
        2.32553         70.0856         6.79524 
        2.33166          69.769         6.75147 
         2.3378         69.2341         6.70803 
        2.34394           68.99         6.66496 
        2.35007         68.6232         6.62233 
        2.35619         68.3175         6.58012 
        2.36233         67.9651         6.53818 
        2.36848         67.6228         6.49652 
        2.37462         67.1499         6.45531 
        2.38075         67.0072          6.4145 
        2.38689         66.5642         6.37401 
        2.39303         66.2097         6.33387 
        2.39916         65.8564         6.29413 
        2.40529          65.701         6.25472 
        2.41143         65.2351         6.21562 
        2.41757         64.9513         6.17684 
         2.4237         64.7135         6.13847 
        2.42983          64.272         6.10042 
        2.43598          63.947         6.06259 
        2.44211         63.6782         6.02515 
        2.44823         63.3578         5.98811 
        2.45437         62.8964         5.95128 
        2.46052         62.6714         5.91473 
        2.46665         62.4442         5.87854 
        2.47279         62.0135         5.84268 
        2.47892         61.7874         5.80709 
        2.48507         61.3701         5.77176 
         2.4912          61.112          5.7368 
