# k  (h/Mpc)    Pcb(k)  (Mpc/h)^3    Pcb_linear(k)  (Mpc/h)^3
     0.00783031         6051.12         6123.46 
       0.013688         7563.65         7534.07 
       0.019231          7605.8         7594.88 
      0.0249154         6899.43         6984.68 
      0.0312784         5984.56         6012.66 
      0.0375637         5110.59         5098.94 
      0.0433917         4397.25         4433.39 
      0.0492413         3951.37         3958.53 
      0.0555754         3554.01         3611.57 
      0.0619321         3372.37         3356.28 
       0.067871          3090.7         3133.81 
      0.0738098         2846.91          2887.9 
      0.0800417         2544.77         2597.99 
      0.0862327         2273.91          2299.1 
      0.0921407         2033.48         2033.85 
      0.0982031         1799.03         1806.55 
       0.104506         1658.36         1629.58 
       0.110769         1532.87          1508.8 
       0.116806         1439.82         1429.06 
       0.122832         1382.69         1366.31 
       0.129052         1296.92         1301.24 
       0.135211         1224.44         1225.45 
       0.141259         1154.05         1138.39 
       0.147318         1070.77         1044.61 
       0.153489         973.177         952.007 
       0.159709         904.141         870.633 
       0.165845         854.979         806.957 
       0.171974         800.784         759.896 
       0.178125         765.851         725.537 
       0.184229         738.531         698.482 
        0.19034         694.717         672.678 
       0.196428         679.178          644.16 
       0.202534          654.23         611.239 
       0.208729         615.809         574.497 
       0.214876         577.664         537.459 
       0.220989         553.757          503.08 
       0.227147         520.747         473.168 
        0.23329         497.934         448.895 
       0.239377         484.719         429.788 
       0.245482         454.741         414.087 
       0.251667          449.33         399.844 
       0.257832         434.231          385.63 
       0.263955         418.366         370.533 
       0.270079         402.081          354.32 
        0.27624         393.765         337.427 
       0.282372         376.912         320.955 
        0.28843         362.998         305.852 
       0.294538         346.393         292.365 
       0.300721         341.959         280.619 
        0.30691         326.197         270.498 
       0.313033         318.604         261.582 
       0.319153          306.23         253.179 
       0.325316         298.888         244.771 
        0.33145         288.817         236.222 
       0.337538         284.206         227.566 
       0.343633         274.317         218.923 
       0.349808         265.343         210.459 
       0.355968         260.616         202.563 
       0.362074         253.556         195.399 
       0.368217         246.584         188.888 
       0.374374         238.412         182.938 
       0.380519         234.285         177.409 
       0.386598         228.215         172.179 
       0.392688         224.986         167.032 
        0.39888         218.996         161.844 
       0.405048         213.814         156.727 
       0.411186         209.019         151.734 
       0.417313         204.451         146.938 
       0.423458         200.142         142.378 
       0.429607          195.39         138.091 
       0.435692           189.4         134.128 
       0.441815         187.958          130.38 
       0.447964         184.587         126.798 
       0.454126         176.724         123.343 
       0.460267         174.741         119.998 
       0.466387         172.233         116.736 
        0.47254         168.633         113.527 
       0.478662         167.047         110.427 
       0.484765         162.131         107.446 
       0.490885         159.554          104.58 
       0.497035         157.436         101.827 
       0.503198          153.17         99.2007 
       0.509342         150.716         96.7016 
       0.515458         148.568         94.3111 
       0.521598         146.407         91.9894 
       0.527764         144.179         89.7262 
       0.533884         141.885         87.5445 
           0.54         139.412         85.4267 
       0.546137         138.236         83.3627 
       0.552299           135.9         81.3549 
       0.558452         133.191          79.419 
       0.564573         130.854         77.5644 
       0.570708         128.949         75.7754 
       0.576825          127.22         74.0557 
       0.582926         124.878          72.397 
       0.589034         122.888         70.7861 
       0.595184         121.446         69.2106 
       0.601379         120.055         67.6696 
       0.607522         117.229         66.1862 
       0.613639         116.898         64.7527 
       0.619772         114.279         63.3585 
       0.625918         113.092         62.0033 
       0.632068         111.807         60.6879 
       0.638161         110.576         59.4233 
         0.6443         109.073         58.1869 
       0.650464         107.779         56.9825 
       0.656582         106.342          55.822 
       0.662703         104.492         54.6941 
       0.668861         103.276         53.5915 
       0.675024         102.102         52.5187 
       0.681124         101.007         51.4858 
       0.687237         99.1933         50.4785 
       0.693381         98.0762         49.4932 
       0.699536         96.9921         48.5325 
       0.705665         97.3246         47.6015 
       0.711789         94.6875         46.6959 
       0.717957          94.189         45.8081 
        0.72409         92.8303         44.9487 
       0.730186         91.2816         44.1169 
       0.736317         91.0671         43.3021 
       0.742472          90.054         42.5051 
       0.748622         89.1804         41.7292 
        0.75476         88.2285         40.9746 
       0.760888         86.9831         40.2399 
       0.767043         86.2081         39.5205 
       0.773185         85.2113         38.8203 
       0.779291         84.4928         38.1412 
       0.785407         83.7897         37.4775 
       0.791564         82.7929         36.8255 
       0.797719         81.5729         36.1894 
       0.803834         81.2547         35.5726 
       0.809972         79.8856          34.968 
       0.816124         79.4101         34.3763 
       0.822261         78.7652            33.8 
       0.828378         78.0895         33.2387 
       0.834502         77.3276         32.6898 
       0.840667         76.5833         32.1499 
       0.846816         75.6376         31.6238 
       0.852925           75.01         31.1128 
       0.859047         74.0463         30.6122 
       0.865192         73.6999         30.1211 
       0.871341         73.2195         29.6405 
       0.877463         72.0212         29.1726 
       0.883569         71.5786         28.7161 
       0.889708         71.1701         28.2671 
       0.895864         70.5378         27.8267 
       0.902008         69.8935         27.3966 
       0.908149         69.4183         26.9759 
       0.914301         68.7532         26.5635 
       0.920448         68.1997         26.1601 
       0.926574         67.5848         25.7666 
       0.932687         67.2392          25.382 
       0.938823         66.1836          25.004 
       0.944975         65.9357         24.6329 
       0.951105         65.3221         24.2707 
       0.957225         64.5119         23.9165 
       0.963368          64.415         23.5682 
       0.969511         63.9566         23.2268 
       0.975621         63.4996         22.8941 
       0.981748         62.8086         22.5671 
       0.987916         62.3872         22.2445 
        0.99406          62.012         21.9294 
        1.00019         61.2836         21.6211 
        1.00632         61.0292         21.3191 
        1.01246         60.4805         21.0224 
        1.01859         59.7011         20.7318 
        1.02471         59.8746         20.4472 
        1.03085         59.1882          20.167 
        1.03698         58.6845         19.8926 
        1.04314         58.1286         19.6223 
        1.04929         57.8402         19.3576 
        1.05541         57.2468         19.0989 
        1.06154         57.1868         18.8443 
        1.06769         56.6444          18.594 
        1.07382         56.3617         18.3491 
        1.07993         56.0777         18.1092 
        1.08607         55.5021         17.8726 
        1.09222         55.2529           17.64 
        1.09836         54.8414         17.4118 
        1.10449         54.4342          17.188 
        1.11063         53.9025         16.9679 
        1.11677          53.605         16.7517 
         1.1229         53.3331         16.5397 
        1.12903         52.5911         16.3312 
        1.13518         52.7561         16.1261 
        1.14131          52.445         15.9247 
        1.14745         51.7309         15.7269 
        1.15359          51.675         15.5324 
        1.15973         51.1153         15.3411 
        1.16584         50.8145          15.154 
        1.17197         50.5745         14.9697 
        1.17811          50.292         14.7879 
        1.18424         49.7645         14.6097 
        1.19038          49.634         14.4339 
        1.19652         49.4139         14.2611 
        1.20267          49.019         14.0912 
        1.20881         48.6973          13.924 
        1.21495         48.3091         13.7599 
        1.22108         48.0524         13.5984 
         1.2272         47.5737         13.4399 
        1.23334         47.4294         13.2836 
        1.23949         47.3354         13.1294 
        1.24562         46.9285         12.9781 
        1.25174         46.7295         12.8294 
        1.25789         46.4431         12.6826 
        1.26402         46.0572         12.5384 
        1.27014         45.6707         12.3968 
        1.27628         45.5444          12.257 
        1.28244         45.1916          12.119 
        1.28858         45.0362         11.9834 
        1.29471         44.8612         11.8502 
        1.30084         44.5859         11.7192 
        1.30697         44.2239         11.5899 
        1.31312         43.8818         11.4624 
        1.31925         43.8088         11.3372 
        1.32537         43.5684         11.2141 
        1.33151         43.2079         11.0923 
        1.33765         43.1514         10.9724 
        1.34378         42.8593         10.8545 
        1.34992         42.4148         10.7383 
        1.35606         42.2113         10.6236 
         1.3622         41.9916         10.5107 
        1.36833         41.7857         10.3997 
        1.37445         41.7247         10.2904 
        1.38059         41.4455         10.1824 
        1.38675         41.1047         10.0756 
        1.39288         40.9951         9.97085 
        1.39901         40.6579         9.86761 
        1.40515         40.4862         9.76559 
         1.4113         40.3661         9.66507 
        1.41742         39.9957         9.56635 
        1.42355         39.8535         9.46883 
         1.4297         39.6041         9.37238 
        1.43585         39.5246         9.27732 
        1.44198         39.2125         9.18395 
        1.44809         39.0464         9.09204 
        1.45423         38.8916         9.00106 
        1.46036         38.7183         8.91149 
        1.46649         38.4365         8.82311 
        1.47263         38.2557         8.73587 
        1.47877          38.143         8.64984 
        1.48491         37.9698         8.56485 
        1.49104         37.7143         8.48118 
        1.49718         37.3585         8.39856 
        1.50333         37.3218         8.31692 
        1.50947         37.1493         8.23654 
         1.5156           36.91         8.15734 
        1.52172         36.7042         8.07918 
        1.52787         36.6978         8.00189 
          1.534         36.3872          7.9257 
        1.54013         36.1629         7.85059 
        1.54627         36.0873         7.77633 
        1.55241         35.8471         7.70301 
        1.55855         35.6591         7.63074 
        1.56467         35.3933         7.55961 
         1.5708         35.4023         7.48918 
        1.57695          35.069         7.41955 
        1.58308         35.0659         7.35096 
        1.58922         34.9126          7.2832 
        1.59535         34.6655         7.21633 
         1.6015          34.455          7.1502 
        1.60764         34.3475         7.08493 
        1.61376         34.1532         7.02066 
        1.61989         33.8826         6.95715 
        1.62604         33.8655         6.89427 
        1.63218         33.6608         6.83222 
        1.63831         33.5191         6.77108 
        1.64444         33.3822         6.71066 
        1.65059         33.1157         6.65084 
        1.65673         32.9745         6.59182 
        1.66285           32.87         6.53368 
        1.66898         32.6796         6.47622 
        1.67512         32.5813         6.41935 
        1.68127         32.3389          6.3631 
         1.6874         32.2574         6.30766 
        1.69353         32.0921         6.25291 
        1.69967         31.9322         6.19869 
        1.70581         31.8319         6.14513 
        1.71193         31.6724          6.0924 
        1.71806         31.4813         6.04019 
        1.72421         31.2985         5.98848 
        1.73035         31.1737         5.93744 
        1.73649         31.0696         5.88701 
        1.74262         30.8882          5.8372 
        1.74876         30.8834         5.78794 
        1.75489          30.642         5.73935 
        1.76101         30.4922         5.69133 
        1.76715         30.3763          5.6438 
        1.77329         30.2648         5.59676 
        1.77943         30.1182         5.55023 
        1.78557         29.9611          5.5043 
        1.79171         29.8393         5.45889 
        1.79785         29.6889         5.41398 
        1.80399         29.5651         5.36959 
        1.81012         29.4916         5.32575 
        1.81625         29.3131         5.28243 
        1.82239         29.2495         5.23952 
        1.82853         28.9989         5.19712 
        1.83466          28.899         5.15522 
        1.84078         28.7017         5.11384 
        1.84692         28.6574         5.07284 
        1.85306         28.5144         5.03224 
         1.8592         28.3771         4.99215 
        1.86533          28.225         4.95252 
        1.87147         28.1304         4.91328 
        1.87761         28.0965         4.87444 
        1.88375          27.939         4.83607 
        1.88988           27.84         4.79816 
        1.89601         27.6387         4.76063 
        1.90215         27.5909         4.72348 
        1.90829         27.5149         4.68674 
        1.91442          27.307         4.65038 
        1.92056         27.2539         4.61445 
         1.9267          27.072         4.57886 
        1.93284         26.9367         4.54362 
        1.93897         26.8833         4.50882 
        1.94509         26.7497         4.47446 
        1.95123         26.6071         4.44037 
        1.95737         26.5049         4.40662 
        1.96349         26.3954          4.3733 
        1.96964         26.2493         4.34023 
        1.97578         26.2163         4.30749 
        1.98192         26.0277         4.27516 
        1.98805         25.9779         4.24315 
        1.99419         25.8294         4.21147 
        2.00033         25.6682          4.1801 
        2.00647         25.5966         4.14906 
         2.0126         25.4719         4.11838 
        2.01874         25.4089         4.08797 
        2.02488         25.3788         4.05785 
        2.03101         25.1754         4.02808 
        2.03714         25.0733         3.99864 
        2.04328         24.9547         3.96946 
        2.04941         24.8877          3.9406 
        2.05554         24.7863         3.91204 
        2.06167         24.6787         3.88373 
        2.06781         24.5773          3.8557 
        2.07396          24.488          3.8279 
        2.08009           24.42         3.80043 
        2.08622         24.2669         3.77326 
        2.09237         24.1811          3.7463 
        2.09851         24.0762          3.7196 
        2.10464         24.0229         3.69321 
        2.11077         23.8266          3.6671 
        2.11691          23.802         3.64119 
        2.12305         23.6903         3.61552 
        2.12918         23.6481         3.59017 
        2.13531         23.5191         3.56506 
        2.14145         23.4545         3.54013 
         2.1476         23.2987         3.51541 
        2.15372         23.2172         3.49105 
        2.15985            23.1         3.46689 
        2.16599         23.0417          3.4429 
        2.17213         22.9807         3.41916 
        2.17827         22.8012         3.39565 
         2.1844         22.7075         3.37238 
        2.19054         22.6348         3.34932 
        2.19666         22.5723         3.32651 
         2.2028         22.5058         3.30389 
        2.20893         22.3904         3.28147 
        2.21508         22.2946         3.25924 
        2.22122         22.1452          3.2372 
        2.22736         22.1443         3.21542 
        2.23349         22.0229         3.19384 
        2.23962          21.929         3.17244 
        2.24577         21.8112         3.15123 
         2.2519         21.7676         3.13024 
        2.25802         21.6775         3.10947 
        2.26417         21.6029         3.08884 
        2.27031         21.5206         3.06837 
        2.27644          21.439         3.04815 
        2.28257         21.3325         3.02811 
        2.28872         21.2184         3.00822 
        2.29486         21.1664         2.98851 
        2.30099          21.066         2.96901 
        2.30712         21.0451         2.94968 
        2.31326         20.9468         2.93049 
         2.3194         20.8358         2.91149 
        2.32553         20.7509         2.89268 
        2.33166         20.6452         2.87405 
         2.3378         20.5608         2.85556 
        2.34394         20.5152         2.83722 
        2.35007         20.4238         2.81908 
        2.35619         20.2985         2.80111 
        2.36233         20.2761         2.78326 
        2.36848         20.1547         2.76552 
        2.37462          20.097         2.74798 
        2.38075         20.0206         2.73061 
        2.38689          19.978         2.71337 
        2.39303         19.8489         2.69628 
        2.39916         19.7865         2.67936 
        2.40529         19.6964         2.66259 
        2.41143         19.6545         2.64594 
        2.41757         19.5648         2.62944 
         2.4237         19.4765          2.6131 
        2.42983         19.4104          2.5969 
        2.43598         19.3436          2.5808 
        2.44211         19.2522         2.56486 
        2.44823         19.1572         2.54909 
        2.45437         19.1071         2.53341 
        2.46052          19.042         2.51785 
        2.46665         18.9907         2.50245 
        2.47279         18.8876         2.48719 
        2.47892         18.8419         2.47203 
        2.48507         18.7541           2.457 
         2.4912          18.694         2.44211 
