# k  (h/Mpc)    Pcb(k)  (Mpc/h)^3    Pcb_linear(k)  (Mpc/h)^3
     0.00783031         4624.51         4677.46 
       0.013688         5771.55         5755.47 
       0.019231          5809.6         5802.38 
      0.0249154         5280.28         5336.53 
      0.0312784         4577.77         4594.05 
      0.0375637         3906.22            3896 
      0.0433917         3366.11         3387.52 
      0.0492413         3022.25         3024.73 
      0.0555754         2723.83         2759.64 
      0.0619321         2577.99         2564.59 
       0.067871         2368.39         2394.62 
      0.0738098         2181.42         2206.72 
      0.0800417         1951.62          1985.2 
      0.0862327         1741.73         1756.82 
      0.0921407         1554.43         1554.13 
      0.0982031         1375.38         1380.45 
       0.104506         1264.18         1245.22 
       0.110769         1168.63         1152.93 
       0.116806         1097.63            1092 
       0.122832         1054.53         1044.05 
       0.129052         991.116         994.331 
       0.135211         935.034         936.413 
       0.141259         879.485         869.894 
       0.147318         814.881         798.233 
       0.153489         740.527         727.468 
       0.159709         685.879         665.287 
       0.165845         646.994          616.63 
       0.171974         605.157         580.669 
       0.178125         579.087         554.415 
       0.184229         558.669         533.741 
        0.19034         526.494         514.023 
       0.196428         513.562         492.231 
       0.202534         494.359         467.075 
       0.208729         464.554         438.999 
       0.214876         434.806         410.697 
       0.220989         415.961         384.426 
       0.227147         390.057         361.569 
        0.23329          372.53         343.021 
       0.239377         361.749         328.421 
       0.245482         340.428         316.423 
       0.251667         335.591         305.539 
       0.257832         324.407         294.678 
       0.263955         312.238         283.141 
       0.270079         299.939         270.752 
        0.27624         292.666         257.844 
       0.282372         280.041         245.256 
        0.28843         268.527         233.715 
       0.294538         256.664          223.41 
       0.300721         252.403         214.434 
        0.30691         240.863           206.7 
       0.313033         234.761         199.887 
       0.319153         224.956         193.465 
       0.325316         220.249         187.041 
        0.33145         212.418         180.508 
       0.337538         208.503         173.893 
       0.343633         201.095         167.289 
       0.349808         194.593         160.821 
       0.355968         190.334         154.788 
       0.362074         184.662         149.314 
       0.368217         179.477         144.338 
       0.374374         174.008         139.791 
       0.380519         170.389         135.567 
       0.386598         165.887          131.57 
       0.392688         163.098         127.637 
        0.39888          158.72         123.672 
       0.405048         154.911         119.762 
       0.411186         151.351         115.947 
       0.417313         147.486         112.282 
       0.423458         144.177         108.798 
       0.429607         140.577         105.522 
       0.435692         136.026         102.493 
       0.441815         134.874         99.6294 
       0.447964         132.542         96.8924 
       0.454126         126.726         94.2521 
       0.460267         125.221         91.6965 
       0.466387         122.949         89.2038 
        0.47254         120.623         86.7516 
       0.478662         119.092         84.3822 
       0.484765         115.667         82.1048 
       0.490885         113.583         79.9144 
       0.497035         112.112          77.811 
       0.503198         108.997         75.8039 
       0.509342         106.773         73.8943 
       0.515458          105.16         72.0675 
       0.521598         103.681         70.2935 
       0.527764         101.989         68.5641 
       0.533884         100.296         66.8969 
           0.54         98.3542         65.2786 
       0.546137         97.3538         63.7014 
       0.552299         95.8341         62.1671 
       0.558452         93.4662         60.6879 
       0.564573         91.7862         59.2706 
       0.570708         90.6416         57.9036 
       0.576825         89.1814         56.5895 
       0.582926          87.416          55.322 
       0.589034         85.7271          54.091 
       0.595184         84.7006         52.8871 
       0.601379         83.6329         51.7095 
       0.607522         81.5989          50.576 
       0.613639         81.3856         49.4806 
       0.619772         79.4642         48.4153 
       0.625918         78.7622         47.3797 
       0.632068         77.7522         46.3745 
       0.638161         76.6675         45.4082 
         0.6443         75.5497         44.4634 
       0.650464         74.5066         43.5431 
       0.656582         73.6551         42.6562 
       0.662703         72.2022         41.7944 
       0.668861          71.386         40.9518 
       0.675024         70.4728          40.132 
       0.681124         69.4375         39.3428 
       0.687237         68.2396          38.573 
       0.693381         67.6278         37.8201 
       0.699536         66.5202          37.086 
       0.705665         66.8113         36.3745 
       0.711789         64.9762         35.6826 
       0.717957         64.4529         35.0041 
        0.72409         63.5675         34.3474 
       0.730186         62.5279         33.7118 
       0.736317         62.3168         33.0892 
       0.742472          61.391         32.4802 
       0.748622         60.8291         31.8873 
        0.75476         60.0984         31.3106 
       0.760888         59.2088         30.7492 
       0.767043         58.5997         30.1995 
       0.773185         57.8512         29.6645 
       0.779291         57.5433         29.1455 
       0.785407         56.9737         28.6383 
       0.791564         56.1206         28.1401 
       0.797719         55.2194         27.6541 
       0.803834         55.0658         27.1827 
       0.809972         54.1543         26.7207 
       0.816124         53.5071         26.2686 
       0.822261         53.1357         25.8282 
       0.828378         52.7402         25.3993 
       0.834502          52.107         24.9798 
       0.840667         51.6416         24.5673 
       0.846816         50.9172         24.1652 
       0.852925         50.4899         23.7748 
       0.859047         49.8219         23.3923 
       0.865192         49.5117          23.017 
       0.871341         49.2829         22.6497 
       0.877463         48.2954         22.2922 
       0.883569         47.9699         21.9434 
       0.889708         47.6793         21.6003 
       0.895864          47.216         21.2637 
       0.902008         46.7948          20.935 
       0.908149         46.3942         20.6136 
       0.914301          46.111         20.2984 
       0.920448         45.4928         19.9902 
       0.926574         45.1345         19.6895 
       0.932687         44.7458         19.3956 
       0.938823         44.0877         19.1068 
       0.944975         43.9661         18.8232 
       0.951105         43.5269         18.5464 
       0.957225         42.9844         18.2757 
       0.963368         42.9275         18.0096 
       0.969511         42.5401         17.7487 
       0.975621         42.1796         17.4945 
       0.981748          41.655         17.2446 
       0.987916         41.4389         16.9981 
        0.99406         41.1405         16.7573 
        1.00019         40.6238         16.5217 
        1.00632         40.4282         16.2909 
        1.01246         40.1361         16.0642 
        1.01859          39.589         15.8422 
        1.02471         39.6158         15.6247 
        1.03085         39.2095         15.4105 
        1.03698         38.7205         15.2009 
        1.04314         38.4035         14.9943 
        1.04929         38.1918          14.792 
        1.05541         37.7731         14.5944 
        1.06154         37.6945         14.3998 
        1.06769         37.3546         14.2086 
        1.07382          37.081         14.0214 
        1.07993         36.9404         13.8381 
        1.08607         36.4598         13.6573 
        1.09222         36.3495         13.4795 
        1.09836         36.0001         13.3052 
        1.10449          35.757         13.1342 
        1.11063         35.3066         12.9659 
        1.11677         35.1696         12.8008 
         1.1229         35.0445         12.6388 
        1.12903         34.5528         12.4794 
        1.13518          34.464         12.3227 
        1.14131         34.3512         12.1688 
        1.14745         33.9439         12.0177 
        1.15359         33.8768          11.869 
        1.15973         33.4695         11.7229 
        1.16584         33.1932         11.5799 
        1.17197         33.1917         11.4391 
        1.17811         32.8005         11.3002 
        1.18424         32.5143          11.164 
        1.19038         32.4777         11.0297 
        1.19652         32.2812         10.8976 
        1.20267          32.044         10.7677 
        1.20881         31.7805           10.64 
        1.21495          31.565         10.5146 
        1.22108         31.3713         10.3912 
         1.2272         31.0281         10.2701 
        1.23334          30.944         10.1506 
        1.23949         30.7767         10.0328 
        1.24562         30.5951         9.91718 
        1.25174         30.4429         9.80357 
        1.25789         30.2062          9.6914 
        1.26402         30.0465          9.5812 
        1.27014         29.7386           9.473 
        1.27628         29.5998         9.36614 
        1.28244         29.4447         9.26074 
        1.28858         29.3309         9.15712 
        1.29471         29.1444         9.05532 
        1.30084         28.9577         8.95516 
        1.30697         28.7373         8.85638 
        1.31312         28.4821         8.75896 
        1.31925         28.3984         8.66331 
        1.32537         28.2769          8.5692 
        1.33151         28.0519         8.47615 
        1.33765         27.9965         8.38454 
        1.34378          27.828         8.29447 
        1.34992         27.4687         8.20567 
        1.35606          27.387         8.11798 
         1.3622         27.2287         8.03173 
        1.36833         27.0704         7.94694 
        1.37445         27.0645         7.86342 
        1.38059         26.8547         7.78086 
        1.38675         26.5788         7.69928 
        1.39288         26.5386         7.61921 
        1.39901         26.3069         7.54031 
        1.40515         26.2126         7.46236 
         1.4113         26.0773         7.38554 
        1.41742         25.8139         7.31011 
        1.42355         25.7904         7.23559 
         1.4297         25.6249         7.16188 
        1.43585         25.5734         7.08924 
        1.44198          25.315         7.01789 
        1.44809         25.2104         6.94766 
        1.45423         25.1128         6.87814 
        1.46036          25.028         6.80969 
        1.46649         24.8381         6.74216 
        1.47263         24.6868         6.67549 
        1.47877         24.5916         6.60976 
        1.48491         24.4546         6.54481 
        1.49104          24.394         6.48087 
        1.49718         24.1571         6.41774 
        1.50333         24.1095         6.35536 
        1.50947          24.003         6.29393 
         1.5156          23.809         6.23341 
        1.52172         23.6454         6.17368 
        1.52787         23.6569         6.11462 
          1.534         23.4482         6.05641 
        1.54013         23.2715         5.99901 
        1.54627          23.234         5.94226 
        1.55241         23.0794         5.88624 
        1.55855         22.9504         5.83102 
        1.56467         22.8621         5.77666 
         1.5708         22.7882         5.72284 
        1.57695         22.5548         5.66963 
        1.58308          22.607         5.61722 
        1.58922         22.4275         5.56544 
        1.59535         22.2889         5.51434 
         1.6015          22.188         5.46381 
        1.60764         22.1417         5.41394 
        1.61376         21.9802         5.36483 
        1.61989         21.8074         5.31629 
        1.62604         21.7989         5.26824 
        1.63218         21.6418         5.22083 
        1.63831         21.5998          5.1741 
        1.64444         21.4338         5.12794 
        1.65059         21.3285         5.08223 
        1.65673         21.2524         5.03712 
        1.66285         21.1374         4.99269 
        1.66898         21.0682         4.94879 
        1.67512         20.9915         4.90533 
        1.68127         20.8376         4.86235 
         1.6874         20.7434         4.81998 
        1.69353         20.6908         4.77815 
        1.69967         20.5302         4.73671 
        1.70581         20.4581         4.69579 
        1.71193         20.3535          4.6555 
        1.71806          20.269          4.6156 
        1.72421         20.1705         4.57609 
        1.73035         20.0929         4.53708 
        1.73649         19.9927         4.49854 
        1.74262         19.9435         4.46048 
        1.74876         19.8369         4.42284 
        1.75489         19.7342         4.38571 
        1.76101         19.6543         4.34902 
        1.76715         19.5892          4.3127 
        1.77329         19.4998         4.27675 
        1.77943         19.3801          4.2412 
        1.78557         19.3215          4.2061 
        1.79171         19.2549          4.1714 
        1.79785         19.1099         4.13708 
        1.80399         19.0338         4.10316 
        1.81012         19.0124         4.06966 
        1.81625         18.8944         4.03656 
        1.82239         18.8684         4.00377 
        1.82853         18.6938         3.97137 
        1.83466         18.6052         3.93935 
        1.84078         18.4925         3.90773 
        1.84692         18.4994          3.8764 
        1.85306         18.3797         3.84537 
         1.8592         18.3102         3.81474 
        1.86533         18.2393         3.78446 
        1.87147         18.1504         3.75447 
        1.87761         18.1239          3.7248 
        1.88375         17.9933         3.69548 
        1.88988         17.9525          3.6665 
        1.89601         17.8388         3.63783 
        1.90215          17.768         3.60944 
        1.90829         17.7274         3.58136 
        1.91442         17.6412         3.55358 
        1.92056         17.5693         3.52612 
         1.9267         17.4977         3.49892 
        1.93284         17.3952           3.472 
        1.93897         17.3378         3.44541 
        1.94509         17.2693         3.41915 
        1.95123         17.1752          3.3931 
        1.95737         17.1235         3.36731 
        1.96349         17.0496         3.34185 
        1.96964         16.9709         3.31658 
        1.97578         16.9233         3.29156 
        1.98192         16.8079         3.26685 
        1.98805         16.7813         3.24239 
        1.99419         16.6894         3.21819 
        2.00033          16.612         3.19421 
        2.00647         16.5624         3.17049 
         2.0126         16.4619         3.14705 
        2.01874         16.3994         3.12382 
        2.02488          16.353         3.10079 
        2.03101          16.319         3.07805 
        2.03714         16.2424         3.05555 
        2.04328         16.1415         3.03325 
        2.04941         16.0664          3.0112 
        2.05554         16.0675         2.98938 
        2.06167           15.98         2.96774 
        2.06781         15.9238         2.94632 
        2.07396          15.862         2.92508 
        2.08009         15.7945         2.90409 
        2.08622         15.7066         2.88333 
        2.09237         15.6575         2.86273 
        2.09851         15.5972         2.84232 
        2.10464         15.5309         2.82215 
        2.11077         15.4495         2.80221 
        2.11691         15.4243         2.78241 
        2.12305         15.3373          2.7628 
        2.12918          15.273         2.74342 
        2.13531         15.2396         2.72423 
        2.14145         15.1472         2.70518 
         2.1476         15.1156         2.68629 
        2.15372         15.0613         2.66768 
        2.15985         14.9668         2.64922 
        2.16599         14.9384         2.63088 
        2.17213         14.8871         2.61274 
        2.17827         14.8374         2.59478 
         2.1844         14.7684           2.577 
        2.19054         14.6952         2.55937 
        2.19666         14.6726         2.54194 
         2.2028         14.6213         2.52466 
        2.20893         14.5363         2.50753 
        2.21508         14.4803         2.49054 
        2.22122         14.4106          2.4737 
        2.22736          14.366         2.45705 
        2.23349         14.3005         2.44056 
        2.23962         14.2482         2.42422 
        2.24577         14.1826           2.408 
         2.2519         14.1748         2.39196 
        2.25802         14.1183          2.3761 
        2.26417         14.0691         2.36033 
        2.27031         13.9964         2.34469 
        2.27644         13.9448         2.32924 
        2.28257         13.8874         2.31392 
        2.28872         13.8354         2.29872 
        2.29486         13.8058         2.28366 
        2.30099          13.753         2.26876 
        2.30712          13.707         2.25399 
        2.31326         13.6551         2.23933 
         2.3194         13.5901         2.22481 
        2.32553         13.5445         2.21044 
        2.33166         13.4514          2.1962 
         2.3378         13.4318         2.18207 
        2.34394         13.3817         2.16806 
        2.35007         13.3164         2.15419 
        2.35619         13.2641         2.14046 
        2.36233         13.2264         2.12682 
        2.36848         13.2049         2.11327 
        2.37462         13.1787         2.09986 
        2.38075         13.0851         2.08659 
        2.38689         13.0556         2.07341 
        2.39303         13.0043         2.06036 
        2.39916         12.9606         2.04743 
        2.40529         12.9101         2.03461 
        2.41143         12.8634         2.02189 
        2.41757         12.8297         2.00928 
         2.4237         12.7667         1.99679 
        2.42983         12.7248         1.98442 
        2.43598         12.6866         1.97211 
        2.44211          12.623         1.95993 
        2.44823         12.5757         1.94788 
        2.45437         12.5612          1.9359 
        2.46052          12.506         1.92401 
        2.46665         12.4414         1.91224 
        2.47279         12.3934         1.90058 
        2.47892         12.3696           1.889 
        2.48507         12.3398         1.87751 
         2.4912         12.2879         1.86614 
