# k  (h/Mpc)    Pcb(k)  (Mpc/h)^3    Pcb_linear(k)  (Mpc/h)^3
     0.00783031         3750.92          3792.6 
       0.013688         4676.26         4666.96 
       0.019231         4710.33         4705.29 
      0.0249154         4286.83         4327.71 
      0.0312784          3715.1          3725.7 
      0.0375637         3168.44         3159.65 
      0.0433917         2733.15          2747.3 
      0.0492413         2452.54          2453.1 
      0.0555754         2213.36         2238.13 
      0.0619321         2091.08         2079.95 
       0.067871         1924.22          1942.1 
      0.0738098         1772.27         1789.72 
      0.0800417         1586.53         1610.06 
      0.0862327         1414.72         1424.84 
      0.0921407         1260.94         1260.46 
      0.0982031          1115.9          1119.6 
       0.104506         1023.62         1009.92 
       0.110769         946.325         935.071 
       0.116806         888.971         885.655 
       0.122832         854.164         846.769 
       0.129052         803.926         806.445 
       0.135211         758.066         759.471 
       0.141259         712.041         705.522 
       0.147318         659.133         647.402 
       0.153489         598.991         590.009 
       0.159709         553.632         539.578 
       0.165845         521.386         500.115 
       0.171974         487.327         470.949 
       0.178125         466.449         449.655 
       0.184229          450.08         432.888 
        0.19034          424.89         416.896 
       0.196428         413.695         399.222 
       0.202534         397.948         378.819 
       0.208729         373.591         356.048 
       0.214876         349.246         333.094 
       0.220989         333.579         311.787 
       0.227147         312.302          293.25 
        0.23329         298.008         278.206 
       0.239377         288.865         266.364 
       0.245482         272.554         256.634 
       0.251667         268.195         247.807 
       0.257832         259.209         238.997 
       0.263955         249.363         229.641 
       0.270079         239.456         219.593 
        0.27624          233.03         209.123 
       0.282372         222.886         198.915 
        0.28843         213.191         189.554 
       0.294538         203.948         181.196 
       0.300721         199.994         173.916 
        0.30691         190.938         167.644 
       0.313033         185.834         162.118 
       0.319153         177.804          156.91 
       0.325316         174.444         151.699 
        0.33145         168.056         146.401 
       0.337538         164.586         141.036 
       0.343633         158.643          135.68 
       0.349808         153.551         130.434 
       0.355968         149.759          125.54 
       0.362074         145.079         121.101 
       0.368217         140.934         117.065 
       0.374374         136.769         113.377 
       0.380519         133.679         109.951 
       0.386598         130.116          106.71 
       0.392688         127.732          103.52 
        0.39888         124.221         100.304 
       0.405048         121.215         97.1329 
       0.411186         118.393         94.0387 
       0.417313         115.042         91.0661 
       0.423458         112.336         88.2402 
       0.429607         109.462         85.5834 
       0.435692         105.866         83.1269 
       0.441815         104.821         80.8042 
       0.447964         103.032         78.5844 
       0.454126         98.5485          76.443 
       0.460267         97.2714         74.3703 
       0.466387         95.1878         72.3486 
        0.47254         93.5283         70.3598 
       0.478662         92.1666          68.438 
       0.484765         89.5075          66.591 
       0.490885         87.7631         64.8144 
       0.497035         86.6222         63.1085 
       0.503198         84.2364         61.4806 
       0.509342         82.3003         59.9318 
       0.515458         80.9714         58.4502 
       0.521598         79.8057         57.0114 
       0.527764         78.4088         55.6088 
       0.533884         77.0963         54.2566 
           0.54         75.5248         52.9441 
       0.546137         74.6491         51.6649 
       0.552299         73.5092         50.4206 
       0.558452          71.501         49.2208 
       0.564573         70.2492         48.0713 
       0.570708         69.3826         46.9626 
       0.576825          68.094         45.8968 
       0.582926         66.7282         44.8688 
       0.589034         65.2969         43.8704 
       0.595184          64.511          42.894 
       0.601379         63.6152         41.9389 
       0.607522         62.1096         41.0196 
       0.613639          61.876         40.1312 
       0.619772         60.3578         39.2671 
       0.625918         59.9247         38.4272 
       0.632068         59.0756         37.6119 
       0.638161          58.134         36.8282 
         0.6443         57.1953          36.062 
       0.650464         56.3382         35.3155 
       0.656582         55.8166         34.5962 
       0.662703         54.6906         33.8973 
       0.668861         53.9812         33.2139 
       0.675024         53.2149          32.549 
       0.681124         52.3413         31.9089 
       0.687237         51.4598         31.2846 
       0.693381         51.0576         30.6739 
       0.699536         50.0357         30.0785 
       0.705665         50.2131         29.5015 
       0.711789         48.8798         28.9403 
       0.717957         48.4016           28.39 
        0.72409         47.7465         27.8574 
       0.730186         46.9945         27.3419 
       0.736317          46.733         26.8369 
       0.742472         45.9529          26.343 
       0.748622         45.5633         25.8621 
        0.75476         44.9499         25.3944 
       0.760888         44.2648         24.9391 
       0.767043         43.7964         24.4933 
       0.773185         43.1759         24.0593 
       0.779291          42.987         23.6384 
       0.785407          42.537         23.2271 
       0.791564         41.8221          22.823 
       0.797719         41.0577         22.4288 
       0.803834         40.9877         22.0465 
       0.809972         40.4154         21.6718 
       0.816124         39.7284         21.3051 
       0.822261          39.468         20.9479 
       0.828378         39.1722            20.6 
       0.834502         38.7025         20.2599 
       0.840667         38.3196         19.9252 
       0.846816         37.7345         19.5992 
       0.852925         37.4182         19.2825 
       0.859047         36.9463         18.9723 
       0.865192          36.654         18.6679 
       0.871341         36.4876           18.37 
       0.877463         35.7434           18.08 
       0.883569         35.4548         17.7971 
       0.889708         35.1619         17.5189 
       0.895864         34.8377         17.2459 
       0.902008         34.5451         16.9793 
       0.908149          34.208         16.7186 
       0.914301         34.0726          16.463 
       0.920448         33.4764          16.213 
       0.926574         33.2468         15.9691 
       0.932687         32.9094         15.7308 
       0.938823         32.4555         15.4965 
       0.944975         32.3009         15.2665 
       0.951105         31.9982          15.042 
       0.957225         31.6122         14.8225 
       0.963368          31.513         14.6066 
       0.969511         31.2209         14.3951 
       0.975621         30.9688         14.1889 
       0.981748          30.539         13.9862 
       0.987916         30.3963         13.7863 
        0.99406         30.1091          13.591 
        1.00019          29.744         13.3999 
        1.00632         29.5913         13.2127 
        1.01246         29.3961         13.0288 
        1.01859         28.9696         12.8488 
        1.02471         28.9453         12.6724 
        1.03085         28.6668         12.4987 
        1.03698         28.2408         12.3287 
        1.04314         28.0524         12.1611 
        1.04929         27.8326         11.9971 
        1.05541         27.5428         11.8367 
        1.06154         27.4411         11.6789 
        1.06769         27.2379         11.5238 
        1.07382         26.9808          11.372 
        1.07993         26.8747         11.2233 
        1.08607         26.5086         11.0767 
        1.09222         26.4139         10.9326 
        1.09836         26.1133         10.7912 
        1.10449         25.9724         10.6524 
        1.11063         25.6451          10.516 
        1.11677          25.568          10.382 
         1.1229         25.4539         10.2506 
        1.12903           25.11         10.1214 
        1.13518         24.9282         9.99434 
        1.14131         24.8725         9.86952 
        1.14745         24.6404         9.74691 
        1.15359         24.5398         9.62637 
        1.15973         24.2607         9.50784 
        1.16584         24.0009         9.39184 
        1.17197          24.037         9.27763 
        1.17811         23.7064         9.16497 
        1.18424         23.5171         9.05453 
        1.19038         23.4688         8.94559 
        1.19652         23.3052         8.83849 
        1.20267         23.1288         8.73316 
        1.20881         22.9629         8.62957 
        1.21495         22.8133         8.52783 
        1.22108         22.6441         8.42775 
         1.2272         22.4121         8.32952 
        1.23334         22.3291         8.23264 
        1.23949           22.14         8.13708 
        1.24562         22.0627         8.04331 
        1.25174         21.9336         7.95117 
        1.25789         21.7623          7.8602 
        1.26402         21.6707         7.77082 
        1.27014         21.4364         7.68306 
        1.27628         21.2732          7.5964 
        1.28244         21.2116         7.51091 
        1.28858         21.1248         7.42687 
        1.29471         20.9401          7.3443 
        1.30084         20.7899         7.26307 
        1.30697         20.6563         7.18296 
        1.31312         20.4692         7.10394 
        1.31925         20.3696         7.02637 
        1.32537           20.31         6.95003 
        1.33151         20.1253         6.87457 
        1.33765           20.06         6.80027 
        1.34378         19.9516         6.72722 
        1.34992         19.7011          6.6552 
        1.35606         19.6704         6.58407 
         1.3622          19.548         6.51412 
        1.36833         19.4047         6.44535 
        1.37445         19.3727         6.37762 
        1.38059         19.2241         6.31065 
        1.38675         19.0187         6.24449 
        1.39288         18.9899         6.17954 
        1.39901         18.8345         6.11556 
        1.40515         18.7638         6.05233 
         1.4113         18.6295         5.99003 
        1.41742         18.4773         5.92885 
        1.42355         18.4347         5.86841 
         1.4297         18.3367         5.80864 
        1.43585         18.2816         5.74972 
        1.44198         18.0937         5.69185 
        1.44809         18.0213         5.63489 
        1.45423         17.9298          5.5785 
        1.46036         17.8575         5.52299 
        1.46649           17.75         5.46822 
        1.47263         17.6124         5.41415 
        1.47877         17.5319         5.36083 
        1.48491         17.4529         5.30816 
        1.49104         17.4035          5.2563 
        1.49718         17.2452          5.2051 
        1.50333         17.1898          5.1545 
        1.50947         17.1132         5.10468 
         1.5156         16.9589          5.0556 
        1.52172         16.8682         5.00716 
        1.52787         16.8294         4.95926 
          1.534         16.7038         4.91204 
        1.54013         16.5755         4.86549 
        1.54627         16.5212         4.81946 
        1.55241         16.4322         4.77402 
        1.55855         16.3442         4.72924 
        1.56467         16.2709         4.68515 
         1.5708         16.2326          4.6415 
        1.57695          16.079         4.59835 
        1.58308          16.065         4.55584 
        1.58922         15.9602         4.51384 
        1.59535         15.8714          4.4724 
         1.6015         15.7755         4.43141 
        1.60764         15.7217         4.39096 
        1.61376         15.6536         4.35113 
        1.61989         15.5126         4.31177 
        1.62604         15.5119          4.2728 
        1.63218          15.401         4.23434 
        1.63831         15.3605         4.19645 
        1.64444         15.2234           4.159 
        1.65059          15.163         4.12193 
        1.65673         15.1297         4.08535 
        1.66285         15.0002         4.04932 
        1.66898          14.981         4.01371 
        1.67512         14.9067         3.97846 
        1.68127         14.8161          3.9436 
         1.6874         14.7384         3.90924 
        1.69353         14.6823         3.87531 
        1.69967         14.5959          3.8417 
        1.70581         14.5334         3.80851 
        1.71193         14.4492         3.77583 
        1.71806         14.4065         3.74347 
        1.72421         14.3163         3.71143 
        1.73035         14.2727         3.67979 
        1.73649            14.2         3.64854 
        1.74262         14.1738         3.61767 
        1.74876         14.0875         3.58714 
        1.75489         14.0264         3.55702 
        1.76101         13.9337         3.52727 
        1.76715         13.9303         3.49781 
        1.77329         13.8202         3.46865 
        1.77943         13.7509         3.43982 
        1.78557         13.7141         3.41135 
        1.79171          13.674         3.38321 
        1.79785         13.5606         3.35537 
        1.80399         13.5185         3.32786 
        1.81012         13.4821         3.30069 
        1.81625          13.395         3.27384 
        1.82239         13.3584         3.24725 
        1.82853         13.2533         3.22097 
        1.83466         13.2093         3.19501 
        1.84078         13.1193         3.16936 
        1.84692         13.1146         3.14395 
        1.85306         13.0432         3.11878 
         1.8592         12.9873         3.09394 
        1.86533         12.9469         3.06938 
        1.87147         12.8819         3.04506 
        1.87761         12.8444         3.02099 
        1.88375         12.7361         2.99721 
        1.88988         12.7308         2.97371 
        1.89601         12.6687         2.95045 
        1.90215         12.5987         2.92743 
        1.90829         12.5588         2.90466 
        1.91442         12.5047         2.88213 
        1.92056         12.4596         2.85985 
         1.9267         12.4055          2.8378 
        1.93284         12.3333         2.81596 
        1.93897         12.2725         2.79439 
        1.94509         12.2313          2.7731 
        1.95123         12.1906         2.75197 
        1.95737          12.144         2.73105 
        1.96349         12.0891          2.7104 
        1.96964         12.0328         2.68991 
        1.97578         11.9903         2.66962 
        1.98192          11.918         2.64957 
        1.98805         11.8962         2.62974 
        1.99419         11.8316          2.6101 
        2.00033         11.7932         2.59066 
        2.00647         11.7559         2.57142 
         2.0126         11.6721         2.55241 
        2.01874         11.6343         2.53357 
        2.02488         11.5707         2.51489 
        2.03101         11.5692         2.49645 
        2.03714          11.515          2.4782 
        2.04328         11.4555         2.46012 
        2.04941          11.392         2.44223 
        2.05554         11.3879         2.42453 
        2.06167         11.3184         2.40698 
        2.06781         11.2933         2.38961 
        2.07396         11.2552         2.37238 
        2.08009         11.2034         2.35536 
        2.08622         11.1254         2.33852 
        2.09237         11.1167         2.32181 
        2.09851         11.0724         2.30526 
        2.10464         11.0142          2.2889 
        2.11077         10.9678         2.27272 
        2.11691         10.9252         2.25667 
        2.12305         10.8914         2.24076 
        2.12918         10.8484         2.22505 
        2.13531         10.8152         2.20948 
        2.14145         10.7633         2.19403 
         2.1476         10.7368         2.17871 
        2.15372         10.6912         2.16362 
        2.15985         10.6457         2.14865 
        2.16599          10.611         2.13377 
        2.17213         10.5817         2.11906 
        2.17827         10.5372         2.10449 
         2.1844         10.4952         2.09007 
        2.19054         10.4341         2.07578 
        2.19666         10.4194         2.06164 
         2.2028         10.3734         2.04762 
        2.20893         10.3518         2.03373 
        2.21508         10.2884         2.01995 
        2.22122         10.2448         2.00629 
        2.22736         10.2159         1.99279 
        2.23349         10.1604         1.97941 
        2.23962         10.1475         1.96616 
        2.24577         10.0931         1.95301 
         2.2519         10.0744            1.94 
        2.25802         10.0294         1.92713 
        2.26417         9.99588         1.91434 
        2.27031         9.95295         1.90166 
        2.27644         9.91458         1.88912 
        2.28257         9.89031         1.87671 
        2.28872         9.84213         1.86438 
        2.29486         9.81999         1.85216 
        2.30099         9.80525         1.84008 
        2.30712         9.75526          1.8281 
        2.31326         9.71706         1.81621 
         2.3194         9.66488         1.80443 
        2.32553         9.64655         1.79277 
        2.33166         9.58769         1.78122 
         2.3378         9.57459         1.76976 
        2.34394         9.53934          1.7584 
        2.35007         9.49259         1.74715 
        2.35619         9.45828         1.73602 
        2.36233         9.41843         1.72495 
        2.36848         9.41239         1.71396 
        2.37462         9.37519         1.70309 
        2.38075         9.31467         1.69232 
        2.38689         9.29477         1.68164 
        2.39303         9.26568         1.67105 
        2.39916         9.24072         1.66056 
        2.40529          9.2128         1.65017 
        2.41143         9.17209         1.63985 
        2.41757         9.15504         1.62962 
         2.4237         9.11023          1.6195 
        2.42983          9.0787         1.60946 
        2.43598         9.06719         1.59948 
        2.44211         9.01304          1.5896 
        2.44823         8.98637         1.57983 
        2.45437         8.96892         1.57011 
        2.46052         8.91788         1.56047 
        2.46665         8.88994         1.55092 
        2.47279         8.85965         1.54146 
        2.47892          8.8266         1.53207 
        2.48507         8.79999         1.52275 
         2.4912         8.77593         1.51353 
