# k  (h/Mpc)    P(k)  (Mpc/h)^3    P_linear(k)  (Mpc/h)^3
     0.00783031         10306.2         10464.6 
       0.013688         12921.7         12856.4 
       0.019231         12956.2         12949.1 
      0.0249154         11693.4         11902.1 
      0.0312784         10152.6         10241.8 
      0.0375637         8686.22         8683.26 
      0.0433917         7444.53         7548.55 
      0.0492413         6703.41         6739.14 
      0.0555754         5997.08         6147.82 
      0.0619321         5725.04         5712.81 
       0.067871         5215.26         5333.81 
      0.0738098         4805.26         4915.02 
      0.0800417         4286.08         4421.43 
      0.0862327         3842.14         3912.63 
      0.0921407         3454.88         3461.13 
      0.0982031         3057.91         3074.25 
       0.104506         2838.08         2773.03 
       0.110769         2623.12         2567.45 
       0.116806         2467.22         2431.73 
       0.122832         2364.18         2324.93 
       0.129052         2207.19         2214.18 
       0.135211         2087.47         2085.19 
       0.141259         1977.58         1937.04 
       0.147318         1842.13         1777.46 
       0.153489         1675.76         1619.87 
       0.159709         1568.15          1481.4 
       0.165845         1492.69         1373.05 
       0.171974         1404.13         1292.97 
       0.178125         1340.16          1234.5 
       0.184229         1289.67         1188.46 
        0.19034         1212.74         1144.55 
       0.196428         1189.06         1096.02 
       0.202534         1145.31            1040 
       0.208729         1083.54         977.486 
       0.214876         1024.57         914.465 
       0.220989         985.797         855.966 
       0.227147         934.851         805.074 
        0.23329         895.864         763.773 
       0.239377         876.852         731.262 
       0.245482         820.189         704.547 
       0.251667         813.958         680.312 
       0.257832         784.161         656.126 
       0.263955         757.657         630.436 
       0.270079         729.177         602.853 
        0.27624         718.983         574.109 
       0.282372         688.275         546.081 
        0.28843          672.29         520.383 
       0.294538         638.706         497.438 
       0.300721         634.804         477.453 
        0.30691         606.177         460.231 
       0.313033         594.285         445.061 
       0.319153         576.983         430.763 
       0.325316         559.972         416.457 
        0.33145         543.959          401.91 
       0.337538         536.296         387.183 
       0.343633         519.373         372.478 
       0.349808         501.613         358.075 
       0.355968         497.014         344.643 
       0.362074         487.803         332.454 
       0.368217         474.199         321.375 
       0.374374         454.796         311.251 
       0.380519         451.726         301.845 
       0.386598         440.302         292.946 
       0.392688         437.415         284.189 
        0.39888         424.778         275.362 
       0.405048         415.935         266.655 
       0.411186         408.353         258.161 
       0.417313         400.607         249.999 
       0.423458          393.15         242.242 
       0.429607         385.598         234.948 
       0.435692         376.095         228.205 
       0.441815         373.071         221.828 
       0.447964         365.414         215.734 
       0.454126         354.771         209.855 
       0.460267         349.587         204.165 
       0.466387         345.546         198.615 
        0.47254         338.377         193.155 
       0.478662         337.366         187.879 
       0.484765         326.367         182.809 
       0.490885          322.84         177.932 
       0.497035         317.377         173.248 
       0.503198         311.596          168.78 
       0.509342         309.032         164.527 
       0.515458         305.266          160.46 
       0.521598          298.97          156.51 
       0.527764         294.102          152.66 
       0.533884         291.482         148.948 
           0.54         287.269         145.344 
       0.546137         285.951         141.833 
       0.552299         279.958         138.417 
       0.558452         277.826         135.123 
       0.564573         273.526         131.967 
       0.570708         268.394         128.924 
       0.576825          264.28         125.998 
       0.582926         261.639         123.176 
       0.589034         259.024         120.435 
       0.595184           256.4         117.754 
       0.601379         253.453         115.132 
       0.607522         248.997         112.608 
       0.613639         247.658          110.17 
       0.619772         242.063         107.798 
       0.625918         240.799         105.492 
       0.632068         237.306         103.254 
       0.638161         236.216         101.102 
         0.6443         232.308         98.9986 
       0.650464          230.07         96.9494 
       0.656582         228.343         94.9748 
       0.662703         226.627         93.0559 
       0.668861         222.609           91.18 
       0.675024         220.056         89.3546 
       0.681124         219.115         87.5974 
       0.687237         216.132         85.8835 
       0.693381         212.904         84.2071 
       0.699536         211.332         82.5725 
       0.705665         210.062         80.9885 
       0.711789         207.249         79.4478 
       0.717957         206.333         77.9373 
        0.72409         203.816         76.4751 
       0.730186         201.297         75.0599 
       0.736317         199.308         73.6735 
       0.742472          198.31         72.3176 
       0.748622         196.554         70.9975 
        0.75476         194.931         69.7135 
       0.760888         192.288         68.4636 
       0.767043         191.974         67.2397 
       0.773185         189.783         66.0483 
       0.779291          186.36         64.8929 
       0.785407         185.869         63.7636 
       0.791564         184.153         62.6543 
       0.797719         181.689         61.5722 
       0.803834         180.794         60.5227 
       0.809972         179.373         59.4941 
       0.816124         179.167         58.4873 
       0.822261         176.724         57.5068 
       0.828378         175.145         56.5518 
       0.834502         174.909          55.618 
       0.840667         172.171         54.6993 
       0.846816         170.797         53.8042 
       0.852925         170.097         52.9349 
       0.859047         168.245         52.0832 
       0.865192          166.86         51.2475 
       0.871341         165.356         50.4298 
       0.877463         164.152         49.6338 
       0.883569         163.375         48.8572 
       0.889708         161.877         48.0933 
       0.895864         159.999         47.3438 
       0.902008         159.288         46.6121 
       0.908149         158.647         45.8964 
       0.914301         156.803         45.1946 
       0.920448         155.621         44.5083 
       0.926574           154.8         43.8388 
       0.932687         154.442         43.1846 
       0.938823         152.373         42.5415 
       0.944975         150.947           41.91 
       0.951105         150.395         41.2938 
       0.957225         148.807         40.6911 
       0.963368         147.255         40.0985 
       0.969511         146.924         39.5177 
       0.975621         146.034         38.9517 
       0.981748          145.47         38.3953 
       0.987916         143.797         37.8464 
        0.99406         142.763         37.3103 
        1.00019         142.488         36.7858 
        1.00632         141.102         36.2719 
        1.01246          140.28         35.7671 
        1.01859          139.26         35.2728 
        1.02471         138.207         34.7885 
        1.03085          136.83         34.3117 
        1.03698         136.299          33.845 
        1.04314         135.066          33.385 
        1.04929         134.231         32.9346 
        1.05541         133.628         32.4945 
        1.06154         132.734         32.0613 
        1.06769         132.604         31.6355 
        1.07382         131.451         31.2188 
        1.07993         130.331         30.8106 
        1.08607          129.48         30.4081 
        1.09222         129.026         30.0123 
        1.09836         127.881         29.6241 
        1.10449         126.862         29.2433 
        1.11063         126.015         28.8688 
        1.11677         125.702          28.501 
         1.1229         124.379         28.1403 
        1.12903         123.715         27.7856 
        1.13518         123.647         27.4367 
        1.14131         122.371          27.094 
        1.14745          121.78         26.7574 
        1.15359         120.936         26.4265 
        1.15973         120.569         26.1011 
        1.16584         119.292         25.7827 
        1.17197         118.789         25.4692 
        1.17811          118.12         25.1599 
        1.18424         117.515         24.8567 
        1.19038         117.067         24.5576 
        1.19652         116.217         24.2636 
        1.20267         115.441         23.9745 
        1.20881         114.607         23.6901 
        1.21495         114.018         23.4108 
        1.22108         113.481         23.1361 
         1.2272         112.437         22.8664 
        1.23334         112.016         22.6004 
        1.23949         111.025         22.3381 
        1.24562         110.662         22.0807 
        1.25174         109.692         21.8277 
        1.25789         109.313          21.578 
        1.26402         108.687         21.3326 
        1.27014          108.03         21.0917 
        1.27628          107.52         20.8538 
        1.28244         106.909         20.6191 
        1.28858          106.58         20.3884 
        1.29471         105.473         20.1617 
        1.30084         105.114         19.9387 
        1.30697         104.431         19.7188 
        1.31312          104.07         19.5019 
        1.31925         103.177         19.2889 
        1.32537         102.801         19.0794 
        1.33151         101.833         18.8722 
        1.33765         101.482         18.6683 
        1.34378         100.881         18.4677 
        1.34992         100.664           18.27 
        1.35606         99.9683         18.0747 
         1.3622         99.1315         17.8827 
        1.36833          98.844         17.6939 
        1.37445          98.167          17.508 
        1.38059         97.6816         17.3241 
        1.38675         96.9703         17.1425 
        1.39288         96.6025         16.9642 
        1.39901         96.2674         16.7886 
        1.40515         95.5686          16.615 
         1.4113         94.8779          16.444 
        1.41742         94.7621          16.276 
        1.42355         93.9721         16.1101 
         1.4297         93.5544          15.946 
        1.43585          92.823         15.7843 
        1.44198         92.5419         15.6254 
        1.44809         91.9397          15.469 
        1.45423          91.402         15.3142 
        1.46036         91.2154         15.1618 
        1.46649         90.5715         15.0115 
        1.47263         90.0483          14.863 
        1.47877         89.8481         14.7167 
        1.48491          89.021         14.5721 
        1.49104         88.7506         14.4297 
        1.49718          88.147         14.2892 
        1.50333          87.718         14.1503 
        1.50947         87.2746         14.0135 
         1.5156         86.7986         13.8787 
        1.52172         86.2945         13.7458 
        1.52787         86.0685         13.6143 
          1.534         85.4439         13.4846 
        1.54013         84.8923         13.3569 
        1.54627         84.6198         13.2305 
        1.55241         84.0893         13.1058 
        1.55855         83.7998         12.9828 
        1.56467         83.3083         12.8618 
         1.5708         82.8327          12.742 
        1.57695         82.7055         12.6235 
        1.58308         81.8119         12.5068 
        1.58922         81.7646         12.3915 
        1.59535         81.3647         12.2777 
         1.6015         80.7428         12.1652 
        1.60764         80.4031         12.0542 
        1.61376         80.1042         11.9448 
        1.61989         79.5666         11.8368 
        1.62604         79.3391         11.7298 
        1.63218         78.9066         11.6242 
        1.63831         78.2376         11.5202 
        1.64444         77.9954         11.4174 
        1.65059         77.5142         11.3156 
        1.65673         77.0622         11.2152 
        1.66285         76.7899         11.1163 
        1.66898         76.3266         11.0185 
        1.67512          75.897         10.9218 
        1.68127         75.5928         10.8261 
         1.6874          75.233         10.7317 
        1.69353           74.85         10.6386 
        1.69967         74.3196         10.5463 
        1.70581         74.2059         10.4552 
        1.71193          73.955         10.3655 
        1.71806         73.2834         10.2767 
        1.72421         72.9961         10.1887 
        1.73035          72.624         10.1019 
        1.73649         72.2803          10.016 
        1.74262         71.9674          9.9313 
        1.74876         71.6249         9.84749 
        1.75489         71.0869         9.76482 
        1.76101         70.9203         9.68313 
        1.76715          70.447         9.60226 
        1.77329         70.2077         9.52222 
        1.77943         69.6784         9.44306 
        1.78557          69.546         9.36492 
        1.79171         69.0728         9.28765 
        1.79785         68.7804         9.21124 
        1.80399         68.5303         9.13571 
        1.81012         68.2566         9.06113 
        1.81625         67.6889         8.98742 
        1.82239         67.4404         8.91443 
        1.82853         67.1532         8.84228 
        1.83466         66.8305           8.771 
        1.84078         66.5166         8.70058 
        1.84692         66.0045         8.63083 
        1.85306         65.7647         8.56176 
         1.8592         65.3409         8.49355 
        1.86533         65.1346         8.42613 
        1.87147         64.7077         8.35936 
        1.87761         64.4693         8.29329 
        1.88375         64.1382         8.22801 
        1.88988         63.9425          8.1635 
        1.89601          63.524         8.09965 
        1.90215         63.2295         8.03644 
        1.90829         63.0327         7.97392 
        1.91442         62.6433         7.91207 
        1.92056         62.1791         7.85094 
         1.9267         62.0503         7.79038 
        1.93284         61.6397         7.73043 
        1.93897         61.3051         7.67122 
        1.94509         61.0164         7.61277 
        1.95123         60.7807         7.55477 
        1.95737         60.5813         7.49734 
        1.96349         60.1012         7.44065 
        1.96964         59.9816         7.38439 
        1.97578         59.6778         7.32869 
        1.98192         59.3618         7.27367 
        1.98805         59.2202         7.21921 
        1.99419         58.7413         7.16531 
        2.00033         58.4918         7.11194 
        2.00647         58.2783         7.05913 
         2.0126         57.8088         7.00694 
        2.01874         57.6182          6.9552 
        2.02488          57.443         6.90394 
        2.03101         57.1471          6.8533 
        2.03714         56.8158         6.80321 
        2.04328         56.6205         6.75356 
        2.04941         56.2608         6.70445 
        2.05554         55.9573         6.65587 
        2.06167         55.7387         6.60771 
        2.06781         55.5282         6.56001 
        2.07396         55.1772         6.51272 
        2.08009         55.0092         6.46598 
        2.08622         54.7091         6.41975 
        2.09237          54.384         6.37388 
        2.09851         54.2538         6.32846 
        2.10464         53.9012         6.28355 
        2.11077         53.6099         6.23913 
        2.11691         53.3764         6.19505 
        2.12305         53.1664         6.15138 
        2.12918         52.8896         6.10825 
        2.13531          52.597         6.06552 
        2.14145         52.3542         6.02311 
         2.1476         52.1785         5.98105 
        2.15372          51.874          5.9396 
        2.15985         51.6012         5.89851 
        2.16599         51.3688         5.85768 
        2.17213          51.182         5.81729 
        2.17827         50.9183         5.77729 
         2.1844         50.6248          5.7377 
        2.19054         50.3384         5.69847 
        2.19666         50.1337         5.65966 
         2.2028         50.0135         5.62118 
        2.20893         49.8043         5.58304 
        2.21508         49.5325         5.54521 
        2.22122         49.2756         5.50771 
        2.22736         49.0982         5.47065 
        2.23349         48.8829         5.43393 
        2.23962         48.4929         5.39753 
        2.24577         48.2745         5.36144 
         2.2519         48.0086         5.32573 
        2.25802         47.9512         5.29039 
        2.26417         47.6432         5.25529 
        2.27031          47.472         5.22047 
        2.27644         47.2188         5.18606 
        2.28257         46.9739         5.15197 
        2.28872         46.6772         5.11812 
        2.29486         46.5546         5.08459 
        2.30099         46.3797         5.05142 
        2.30712         46.1396         5.01854 
        2.31326         45.8592         4.98589 
         2.3194         45.6205         4.95355 
        2.32553         45.4176         4.92156 
        2.33166         45.2483         4.88986 
         2.3378         44.9582         4.85839 
        2.34394         44.7231          4.8272 
        2.35007         44.4861         4.79632 
        2.35619         44.3701         4.76575 
        2.36233         44.2705         4.73538 
        2.36848         43.9266         4.70521 
        2.37462         43.7549         4.67536 
        2.38075          43.563          4.6458 
        2.38689         43.4209         4.61648 
        2.39303         43.1881         4.58741 
        2.39916         42.9768         4.55862 
        2.40529         42.7659         4.53008 
        2.41143         42.6026         4.50176 
        2.41757         42.3691         4.47367 
         2.4237         42.2671         4.44588 
        2.42983         42.0187         4.41832 
        2.43598         41.7668         4.39093 
        2.44211         41.6173         4.36381 
        2.44823         41.4062         4.33698 
        2.45437         41.2559          4.3103 
        2.46052         40.9316         4.28383 
        2.46665         40.8161         4.25763 
        2.47279         40.6886         4.23165 
        2.47892         40.4736         4.20587 
        2.48507         40.2648         4.18029 
         2.4912         40.1325         4.15497 
