# k  (h/Mpc)    Pcb(k)  (Mpc/h)^3    Pcb_linear(k)  (Mpc/h)^3
     0.00783031         12851.7         13030.5 
       0.013688         16152.2         16027.9 
       0.019231         16179.6         16153.4 
      0.0249154         14570.2         14852.9 
      0.0312784         12657.5         12784.4 
      0.0375637         10840.7         10840.8 
      0.0433917         9273.97         9425.28 
      0.0492413         8359.44         8415.36 
      0.0555754         7458.84          7677.5 
      0.0619321         7140.21         7134.63 
       0.067871         6485.76         6661.59 
      0.0738098         5977.35         6138.75 
      0.0800417         5326.29         5522.41 
      0.0862327         4782.25         4887.03 
      0.0921407         4312.61         4323.17 
      0.0982031         3819.35         3839.99 
       0.104506         3555.66         3463.79 
       0.110769         3286.65         3207.04 
       0.116806         3094.92         3037.54 
       0.122832         2961.35         2904.15 
       0.129052         2759.16         2765.84 
       0.135211         2611.26         2604.72 
       0.141259         2480.08         2419.68 
       0.147318         2315.34         2220.35 
       0.153489         2107.71          2023.5 
       0.159709         1978.21         1850.54 
       0.165845         1889.67         1715.19 
       0.171974         1781.47         1615.16 
       0.178125         1698.65         1542.13 
       0.184229         1631.97         1484.62 
        0.19034         1538.14         1429.77 
       0.196428         1508.06         1369.16 
       0.202534         1451.29         1299.18 
       0.208729         1376.82         1221.09 
       0.214876         1308.42         1142.36 
       0.220989         1260.05         1069.29 
       0.227147         1199.95         1005.71 
        0.23329         1150.93         954.118 
       0.239377         1129.15         913.506 
       0.245482         1057.04         880.134 
       0.251667         1050.45          849.86 
       0.257832         1010.27         819.648 
       0.263955         976.794         787.558 
       0.270079         940.986         753.099 
        0.27624         929.394         717.193 
       0.282372          889.79         682.181 
        0.28843         875.602         650.079 
       0.294538         831.096         621.414 
       0.300721         826.859         596.448 
        0.30691         791.203         574.936 
       0.313033         776.021         555.985 
       0.319153         757.337         538.123 
       0.325316         733.801         520.253 
        0.33145         714.763         502.081 
       0.337538         703.947         483.683 
       0.343633         684.066         465.314 
       0.349808         660.203         447.323 
       0.355968         655.597         430.541 
       0.362074         646.127         415.315 
       0.368217          627.31         401.474 
       0.374374         601.189         388.827 
       0.380519         599.784         377.077 
       0.386598         583.895          365.96 
       0.392688         581.496          355.02 
        0.39888         564.207         343.993 
       0.405048         554.096         333.117 
       0.411186         545.421         322.505 
       0.417313          534.55         312.311 
       0.423458         524.862         302.619 
       0.429607         516.316         293.508 
       0.435692         504.283         285.083 
       0.441815         500.171         277.117 
       0.447964         489.631         269.505 
       0.454126         479.768          262.16 
       0.460267         470.896         255.052 
       0.466387         465.563         248.119 
        0.47254         457.636         241.298 
       0.478662         455.971         234.707 
       0.484765         440.889         228.373 
       0.490885         437.162          222.28 
       0.497035         428.906          216.43 
       0.503198         423.632         210.847 
       0.509342         420.255         205.535 
       0.515458         416.106         200.454 
       0.521598         406.205          195.52 
       0.527764         399.194          190.71 
       0.533884         397.051         186.072 
           0.54         391.547         181.571 
       0.546137         389.881         177.184 
       0.552299          382.14         172.917 
       0.558452         380.127         168.802 
       0.564573         374.519          164.86 
       0.570708         368.418         161.058 
       0.576825         360.648         157.402 
       0.582926          359.18         153.877 
       0.589034         355.983         150.453 
       0.595184         352.728         147.104 
       0.601379         347.902         143.829 
       0.607522         342.698         140.676 
       0.613639         341.347         137.629 
       0.619772         333.431         134.666 
       0.625918         332.467         131.785 
       0.632068          327.22          128.99 
       0.638161          325.97         126.302 
         0.6443         320.357         123.674 
       0.650464          317.65         121.114 
       0.656582         315.649         118.647 
       0.662703         314.257          116.25 
       0.668861         308.588         113.907 
       0.675024         305.459         111.626 
       0.681124          303.59         109.431 
       0.687237         300.453          107.29 
       0.693381          296.05         105.196 
       0.699536         293.153         103.154 
       0.705665         291.007         101.175 
       0.711789         288.914         99.2502 
       0.717957         286.879         97.3631 
        0.72409          284.07         95.5365 
       0.730186         280.907         93.7686 
       0.736317         277.971         92.0367 
       0.742472           276.6         90.3427 
       0.748622         273.981         88.6936 
        0.75476         271.375         87.0897 
       0.760888         268.174         85.5282 
       0.767043         268.419         83.9992 
       0.773185         264.976         82.5109 
       0.779291         260.581         81.0675 
       0.785407         260.054         79.6567 
       0.791564         257.102         78.2709 
       0.797719         254.559         76.9191 
       0.803834         252.811          75.608 
       0.809972         251.659          74.323 
       0.816124         251.308         73.0653 
       0.822261         247.813         71.8404 
       0.828378         245.794         70.6474 
       0.834502          244.71         69.4808 
       0.840667         241.695         68.3332 
       0.846816         240.172         67.2149 
       0.852925         238.981          66.129 
       0.859047         236.994          65.065 
       0.865192         234.371          64.021 
       0.871341         232.594         62.9995 
       0.877463         231.155         62.0051 
       0.883569         230.287         61.0349 
       0.889708         227.797         60.0806 
       0.895864         225.301         59.1444 
       0.902008         224.398         58.2302 
       0.908149          223.44         57.3361 
       0.914301         220.521         56.4595 
       0.920448         219.158         55.6021 
       0.926574         217.566         54.7657 
       0.932687         217.594         53.9484 
       0.938823         214.908          53.145 
       0.944975         213.525         52.3562 
       0.951105         212.414         51.5864 
       0.957225         210.657         50.8335 
       0.963368         208.013         50.0931 
       0.969511         207.221         49.3676 
       0.975621         205.345         48.6604 
       0.981748         205.427         47.9654 
       0.987916         203.319         47.2797 
        0.99406         201.169           46.61 
        1.00019         201.206         45.9547 
        1.00632           199.4         45.3127 
        1.01246         197.936         44.6821 
        1.01859         197.681         44.0646 
        1.02471         195.098         43.4596 
        1.03085         193.304          42.864 
        1.03698         192.574         42.2809 
        1.04314         190.843         41.7062 
        1.04929          189.72         41.1437 
        1.05541         189.686         40.5938 
        1.06154         187.502         40.0527 
        1.06769         187.313         39.5207 
        1.07382         185.688         39.0002 
        1.07993         184.121         38.4902 
        1.08607         183.492         37.9873 
        1.09222         182.472          37.493 
        1.09836         180.947          37.008 
        1.10449         179.096         36.5323 
        1.11063         177.647         36.0644 
        1.11677         177.435          35.605 
         1.1229         175.985         35.1544 
        1.12903         175.139         34.7112 
        1.13518         174.227         34.2754 
        1.14131         172.564         33.8473 
        1.14745          172.39         33.4268 
        1.15359         171.011         33.0134 
        1.15973         170.083         32.6069 
        1.16584         168.441         32.2091 
        1.17197         168.021         31.8174 
        1.17811         166.787         31.4311 
        1.18424         165.912         31.0523 
        1.19038         165.495         30.6787 
        1.19652         164.112         30.3114 
        1.20267         163.448         29.9502 
        1.20881         161.951         29.5949 
        1.21495         161.277          29.246 
        1.22108         160.335         28.9028 
         1.2272         158.979         28.5659 
        1.23334         158.456         28.2337 
        1.23949         157.307         27.9059 
        1.24562          156.49         27.5844 
        1.25174         155.074         27.2684 
        1.25789          154.23         26.9564 
        1.26402         153.243         26.6499 
        1.27014         152.213         26.3489 
        1.27628         151.719         26.0517 
        1.28244         151.323         25.7585 
        1.28858         150.102         25.4703 
        1.29471         148.617         25.1871 
        1.30084         148.355         24.9085 
        1.30697          147.14         24.6338 
        1.31312          146.49         24.3628 
        1.31925         145.571         24.0968 
        1.32537         144.873          23.835 
        1.33151         143.494         23.5762 
        1.33765         143.027         23.3214 
        1.34378         142.283         23.0708 
        1.34992         141.763         22.8238 
        1.35606         141.271         22.5799 
         1.3622         139.907           22.34 
        1.36833         138.875         22.1042 
        1.37445         138.209         21.8719 
        1.38059         137.505         21.6422 
        1.38675         136.787         21.4153 
        1.39288         136.233         21.1926 
        1.39901         135.863         20.9732 
        1.40515         134.511         20.7563 
         1.4113         133.601         20.5427 
        1.41742         133.002         20.3328 
        1.42355         132.184         20.1256 
         1.4297          131.55         19.9206 
        1.43585         130.496         19.7185 
        1.44198         130.135         19.5201 
        1.44809         129.406         19.3247 
        1.45423         128.631         19.1313 
        1.46036          127.95          18.941 
        1.46649         127.033         18.7531 
        1.47263         126.399         18.5677 
        1.47877         125.926         18.3849 
        1.48491         124.605         18.2042 
        1.49104         124.545         18.0264 
        1.49718         123.371         17.8508 
        1.50333         122.945         17.6773 
        1.50947         122.438         17.5064 
         1.5156          121.56         17.3381 
        1.52172         120.855         17.1719 
        1.52787         120.172         17.0077 
          1.534         119.578         16.8457 
        1.54013         118.841         16.6861 
        1.54627         118.367         16.5282 
        1.55241         117.419         16.3724 
        1.55855         116.786         16.2188 
        1.56467          116.51         16.0676 
         1.5708         115.552         15.9179 
        1.57695         115.233         15.7699 
        1.58308         114.453         15.6241 
        1.58922         114.119         15.4801 
        1.59535         113.251          15.338 
         1.6015          112.77         15.1974 
        1.60764          112.14         15.0587 
        1.61376         111.752         14.9221 
        1.61989         110.875         14.7871 
        1.62604         110.443         14.6535 
        1.63218         109.931         14.5216 
        1.63831         109.024         14.3916 
        1.64444         108.729         14.2632 
        1.65059         108.143         14.1361 
        1.65673         107.127         14.0106 
        1.66285         106.944          13.887 
        1.66898         106.404         13.7649 
        1.67512         105.849          13.644 
        1.68127         105.163         13.5245 
         1.6874         104.375         13.4066 
        1.69353         103.985         13.2903 
        1.69967         103.604          13.175 
        1.70581         102.972         13.0612 
        1.71193         102.579         12.9491 
        1.71806         101.949         12.8381 
        1.72421         101.206         12.7282 
        1.73035         100.969         12.6198 
        1.73649         100.269         12.5126 
        1.74262         99.6453         12.4067 
        1.74876         99.3643          12.302 
        1.75489          98.526         12.1987 
        1.76101         98.0831         12.0967 
        1.76715         97.4543         11.9956 
        1.77329         97.2201         11.8957 
        1.77943         96.3671         11.7968 
        1.78557         96.1575         11.6991 
        1.79171         95.3711         11.6026 
        1.79785         94.9895         11.5072 
        1.80399         94.4557         11.4128 
        1.81012         94.0768         11.3196 
        1.81625         93.5564         11.2276 
        1.82239         93.2423         11.1364 
        1.82853         92.7236         11.0462 
        1.83466         92.0227         10.9572 
        1.84078         91.8473         10.8692 
        1.84692         91.1412         10.7821 
        1.85306         90.6419         10.6958 
         1.8592         90.3029         10.6106 
        1.86533         89.6973         10.5264 
        1.87147         89.2168          10.443 
        1.87761         88.8458         10.3604 
        1.88375         88.2652         10.2789 
        1.88988         87.8517         10.1983 
        1.89601         87.3847         10.1185 
        1.90215         86.9781         10.0395 
        1.90829         86.4402         9.96145 
        1.91442         86.1242         9.88418 
        1.92056         85.4872          9.8078 
         1.9267         85.2205         9.73215 
        1.93284         84.7194         9.65726 
        1.93897         84.2933          9.5833 
        1.94509         83.9744         9.51027 
        1.95123         83.4914         9.43782 
        1.95737         83.0004         9.36607 
        1.96349         82.5031         9.29526 
        1.96964         82.0683         9.22497 
        1.97578         81.7038         9.15538 
        1.98192         81.4623         9.08665 
        1.98805         80.7249         9.01862 
        1.99419         80.4562         8.95129 
        2.00033         80.1772         8.88461 
        2.00647         79.6485         8.81863 
         2.0126         79.2151         8.75344 
        2.01874         78.6627         8.68881 
        2.02488         78.3125         8.62477 
        2.03101         77.9473          8.5615 
        2.03714         77.4196         8.49892 
        2.04328         77.1744         8.43691 
        2.04941         76.8006         8.37556 
        2.05554         76.4995         8.31487 
        2.06167         76.0026          8.2547 
        2.06781         75.4932         8.19511 
        2.07396         75.1585         8.13604 
        2.08009         74.8736         8.07764 
        2.08622         74.4744         8.01989 
        2.09237         74.0557         7.96259 
        2.09851         73.8423         7.90584 
        2.10464         73.3128         7.84974 
        2.11077         72.9772         7.79425 
        2.11691         72.6938         7.73918 
        2.12305         72.1692         7.68463 
        2.12918          71.845         7.63075 
        2.13531         71.5174         7.57737 
        2.14145         71.0322         7.52438 
         2.1476         70.6954         7.47184 
        2.15372         70.4225         7.42006 
        2.15985         69.9963         7.36873 
        2.16599         69.6943         7.31773 
        2.17213         69.3502         7.26727 
        2.17827         68.9494         7.21729 
         2.1844          68.582         7.16784 
        2.19054         68.4211         7.11883 
        2.19666          67.938         7.07034 
         2.2028         67.8409         7.02227 
        2.20893         67.3078         6.97462 
        2.21508         66.9776         6.92736 
        2.22122         66.6571         6.88053 
        2.22736         66.3284         6.83422 
        2.23349         65.9384         6.78835 
        2.23962          65.554         6.74288 
        2.24577         65.2755         6.69779 
         2.2519         65.0284         6.65318 
        2.25802         64.6996         6.60904 
        2.26417         64.2398         6.56518 
        2.27031         63.9982         6.52168 
        2.27644         63.7236          6.4787 
        2.28257          63.363         6.43611 
        2.28872         63.0263         6.39383 
        2.29486         62.5848         6.35193 
        2.30099         62.3115          6.3105 
        2.30712         62.1833         6.26942 
        2.31326         61.8514         6.22863 
         2.3194         61.4848         6.18824 
        2.32553         61.1619         6.14827 
        2.33166         60.8025         6.10867 
         2.3378         60.4604         6.06936 
        2.34394          60.238         6.03039 
        2.35007         59.9043         5.99182 
        2.35619           59.63         5.95363 
        2.36233         59.3905         5.91568 
        2.36848         59.0679         5.87799 
        2.37462         58.6831         5.84071 
        2.38075         58.5484         5.80378 
        2.38689         58.1927         5.76714 
        2.39303         57.8836         5.73083 
        2.39916         57.6387         5.69486 
        2.40529         57.3795         5.65921 
        2.41143          57.099         5.62384 
        2.41757         56.7496         5.58875 
         2.4237         56.6134         5.55403 
        2.42983         56.1552          5.5196 
        2.43598         55.8978         5.48538 
        2.44211         55.6859          5.4515 
        2.44823         55.4103         5.41798 
        2.45437         55.0604         5.38466 
        2.46052         54.8159         5.35159 
        2.46665         54.6173         5.31885 
        2.47279         54.2524          5.2864 
        2.47892         54.0519          5.2542 
        2.48507         53.7758         5.22224 
         2.4912         53.5768          5.1906 
