# k  (h/Mpc)    Pcb(k)  (Mpc/h)^3    Pcb_linear(k)  (Mpc/h)^3
     0.00783031         13347.9         13535.3 
       0.013688         16781.4         16648.6 
       0.019231         16805.8         16778.7 
      0.0249154         15127.1         15427.8 
      0.0312784         13142.3         13279.2 
      0.0375637         11258.1         11260.3 
      0.0433917         9627.53         9789.95 
      0.0492413         8679.78         8740.94 
      0.0555754         7740.69         7974.52 
      0.0619321         7413.77         7410.64 
       0.067871         6730.58         6919.28 
      0.0738098          6203.3         6376.21 
      0.0800417         5526.61         5736.03 
      0.0862327          4963.6         5076.07 
      0.0921407         4478.63         4490.39 
      0.0982031         3966.94         3988.52 
       0.104506         3695.12         3597.77 
       0.110769         3415.66         3331.09 
       0.116806          3217.2         3155.03 
       0.122832         3077.45         3016.48 
       0.129052          2866.3         2872.82 
       0.135211         2712.94         2705.47 
       0.141259         2577.91         2513.27 
       0.147318         2407.74         2306.22 
       0.153489         2192.15         2101.77 
       0.159709         2058.51         1922.11 
       0.165845         1967.74         1781.53 
       0.171974         1855.83         1677.63 
       0.178125         1769.27         1601.77 
       0.184229         1699.18         1542.04 
        0.19034         1602.49         1485.07 
       0.196428         1570.96         1422.11 
       0.202534          1511.5         1349.43 
       0.208729         1434.71         1268.31 
       0.214876         1364.81         1186.54 
       0.220989         1314.51         1110.64 
       0.227147         1252.79         1044.61 
        0.23329          1201.8          991.02 
       0.239377         1179.58         948.837 
       0.245482         1104.55         914.175 
       0.251667          1097.9          882.73 
       0.257832         1055.62         851.349 
       0.263955         1020.69         818.018 
       0.270079         983.487         782.226 
        0.27624          971.55         744.931 
       0.282372         930.224         708.565 
        0.28843          916.62         675.222 
       0.294538         870.012         645.448 
       0.300721         865.603         619.516 
        0.30691         828.698         597.172 
       0.313033         812.793         577.489 
       0.319153         793.973         558.936 
       0.325316         769.114         540.374 
        0.33145         749.546           521.5 
       0.337538         737.962          502.39 
       0.343633         717.684          483.31 
       0.349808          692.62         464.623 
       0.355968         687.915         447.193 
       0.362074         678.476         431.378 
       0.368217         658.513         417.001 
       0.374374         631.243         403.866 
       0.380519         630.197         391.661 
       0.386598         613.331         380.114 
       0.392688         610.978         368.751 
        0.39888         592.774         357.297 
       0.405048          582.54         346.001 
       0.411186         573.645         334.978 
       0.417313         562.102          324.39 
       0.423458         551.938         314.323 
       0.429607          543.26         304.859 
       0.435692           530.7         296.109 
       0.441815         526.352         287.835 
       0.447964         515.265         279.928 
       0.454126         505.732           272.3 
       0.460267         495.936         264.917 
       0.466387         490.344         257.715 
        0.47254          482.49         250.631 
       0.478662         480.495         243.785 
       0.484765         464.662         237.206 
       0.490885         460.914         230.877 
       0.497035         452.082           224.8 
       0.503198         446.984         219.002 
       0.509342         443.348         213.485 
       0.515458         439.173         208.207 
       0.521598         428.533         203.082 
       0.527764         421.104         198.085 
       0.533884         419.035         193.269 
           0.54         413.318         188.593 
       0.546137         411.478         184.037 
       0.552299         403.519         179.604 
       0.558452         401.426         175.331 
       0.564573         395.588         171.236 
       0.570708         389.402         167.287 
       0.576825         380.751          163.49 
       0.582926         379.636         159.828 
       0.589034         376.289         156.272 
       0.595184         372.907         152.794 
       0.601379         367.639         149.392 
       0.607522         362.275         146.117 
       0.613639         361.008         142.952 
       0.619772         352.653         139.874 
       0.625918         351.639         136.882 
       0.632068         346.091         133.978 
       0.638161         344.789         131.187 
         0.6443         338.833         128.457 
       0.650464         336.103         125.798 
       0.656582         333.962         123.236 
       0.662703         332.604         120.746 
       0.668861         326.644         118.312 
       0.675024          323.46         115.943 
       0.681124         321.328         113.663 
       0.687237         318.133         111.439 
       0.693381         313.535         109.264 
       0.699536         310.289         107.143 
       0.705665         308.117         105.088 
       0.711789         306.112         103.089 
       0.717957         303.822         101.129 
        0.72409         301.005         99.2315 
       0.730186         297.586         97.3952 
       0.736317         294.567         95.5963 
       0.742472         293.122         93.8368 
       0.748622         290.259         92.1239 
        0.75476         287.367          90.458 
       0.760888         284.091         88.8361 
       0.767043         284.423         87.2479 
       0.773185         280.768         85.7021 
       0.779291          276.28         84.2028 
       0.785407         275.691         82.7375 
       0.791564         272.459         81.2981 
       0.797719         269.943          79.894 
       0.803834         267.945         78.5322 
       0.809972         266.882         77.1975 
       0.816124         266.461         75.8912 
       0.822261         262.767         74.6189 
       0.828378         260.684         73.3798 
       0.834502          259.29          72.168 
       0.840667         256.331          70.976 
       0.846816         254.799         69.8145 
       0.852925         253.427         68.6866 
       0.859047         251.418         67.5814 
       0.865192         248.563         66.4971 
       0.871341         246.726         65.4361 
       0.877463          245.32         64.4032 
       0.883569         244.322         63.3954 
       0.889708         241.678         62.4042 
       0.895864         239.186         61.4318 
       0.902008         238.114         60.4823 
       0.908149         236.989         59.5536 
       0.914301         233.956         58.6431 
       0.920448         232.567         57.7526 
       0.926574         230.688         56.8838 
       0.932687         230.803         56.0349 
       0.938823         227.984         55.2004 
       0.944975         226.704         54.3811 
       0.951105         225.395         53.5815 
       0.957225         223.629         52.7995 
       0.963368         220.792         52.0305 
       0.969511         219.928         51.2769 
       0.975621         217.896         50.5424 
       0.981748         217.974         49.8205 
       0.987916         215.869         49.1083 
        0.99406           213.4         48.4127 
        1.00019         213.418         47.7321 
        1.00632         211.631         47.0652 
        1.01246         210.002         46.4102 
        1.01859         209.924         45.7689 
        1.02471         206.982         45.1405 
        1.03085         205.213         44.5218 
        1.03698         204.438         43.9162 
        1.04314         202.547         43.3193 
        1.04929         201.374         42.7349 
        1.05541         201.462         42.1638 
        1.06154         198.905         41.6018 
        1.06769         198.677         41.0492 
        1.07382         197.021         40.5085 
        1.07993         195.399         39.9789 
        1.08607         194.817         39.4565 
        1.09222         193.611          38.943 
        1.09836         192.037         38.4394 
        1.10449         190.057         37.9452 
        1.11063         188.513         37.4592 
        1.11677         188.274          36.982 
         1.1229         186.777          36.514 
        1.12903         185.868         36.0537 
        1.13518         184.788          35.601 
        1.14131         183.089         35.1564 
        1.14745         182.983         34.7196 
        1.15359         181.454         34.2903 
        1.15973          180.37          33.868 
        1.16584         178.745         33.4548 
        1.17197         178.403          33.048 
        1.17811         176.898         32.6467 
        1.18424         175.974         32.2533 
        1.19038         175.528         31.8652 
        1.19652         174.069         31.4837 
        1.20267         173.458         31.1085 
        1.20881         171.853         30.7395 
        1.21495         171.074         30.3771 
        1.22108         170.058         30.0206 
         1.2272         168.673         29.6707 
        1.23334         168.132         29.3256 
        1.23949         166.901         28.9852 
        1.24562          166.05         28.6512 
        1.25174         164.608          28.323 
        1.25789         163.626         27.9989 
        1.26402         162.552         27.6806 
        1.27014         161.422         27.3679 
        1.27628         160.926         27.0592 
        1.28244         160.593         26.7547 
        1.28858         159.091         26.4553 
        1.29471         157.636         26.1612 
        1.30084         157.344         25.8719 
        1.30697          156.02         25.5865 
        1.31312         155.227          25.305 
        1.31925         154.382         25.0287 
        1.32537         153.645         24.7568 
        1.33151         152.168          24.488 
        1.33765         151.585         24.2233 
        1.34378         150.871         23.9631 
        1.34992         150.252         23.7066 
        1.35606         149.873         23.4532 
         1.3622         148.356          23.204 
        1.36833         147.165         22.9591 
        1.37445          146.53         22.7178 
        1.38059         145.689         22.4793 
        1.38675         145.036         22.2436 
        1.39288         144.352         22.0122 
        1.39901         144.052         21.7843 
        1.40515         142.518         21.5591 
         1.4113         141.628         21.3372 
        1.41742         140.892         21.1192 
        1.42355         140.085         20.9039 
         1.4297         139.369          20.691 
        1.43585         138.349         20.4812 
        1.44198         137.848          20.275 
        1.44809         137.165         20.0721 
        1.45423         136.354         19.8713 
        1.46036         135.508         19.6735 
        1.46649         134.573         19.4784 
        1.47263         133.881         19.2858 
        1.47877          133.34         19.0959 
        1.48491         131.952         18.9083 
        1.49104         131.923         18.7235 
        1.49718         130.641         18.5412 
        1.50333         130.175         18.3609 
        1.50947         129.644         18.1835 
         1.5156         128.725         18.0086 
        1.52172         127.979         17.8361 
        1.52787         127.174         17.6654 
          1.534          126.63         17.4973 
        1.54013         125.836         17.3314 
        1.54627         125.297         17.1675 
        1.55241         124.306         17.0056 
        1.55855         123.609         16.8461 
        1.56467         123.234          16.689 
         1.5708         122.279         16.5336 
        1.57695         121.876         16.3798 
        1.58308         121.161         16.2284 
        1.58922         120.727         16.0788 
        1.59535         119.785         15.9312 
         1.6015         119.329         15.7852 
        1.60764         118.659         15.6411 
        1.61376         118.111         15.4992 
        1.61989         117.255          15.359 
        1.62604         116.705         15.2202 
        1.63218         116.248         15.0832 
        1.63831         115.317         14.9482 
        1.64444         114.962         14.8148 
        1.65059         114.375         14.6828 
        1.65673         113.288         14.5525 
        1.66285         113.073         14.4241 
        1.66898         112.488         14.2973 
        1.67512         111.963         14.1717 
        1.68127          111.15         14.0476 
         1.6874         110.299         13.9252 
        1.69353         109.982         13.8043 
        1.69967         109.536         13.6846 
        1.70581         108.822         13.5663 
        1.71193         108.366         13.4499 
        1.71806         107.745         13.3347 
        1.72421         106.974         13.2205 
        1.73035         106.794         13.1078 
        1.73649         106.003         12.9965 
        1.74262         105.301         12.8866 
        1.74876          105.03         12.7778 
        1.75489         104.154         12.6705 
        1.76101         103.616         12.5645 
        1.76715         103.007         12.4596 
        1.77329         102.759         12.3557 
        1.77943         101.843          12.253 
        1.78557         101.556         12.1516 
        1.79171         100.764         12.0514 
        1.79785          100.34         11.9522 
        1.80399         99.7297         11.8542 
        1.81012         99.3331         11.7574 
        1.81625         98.8059         11.6618 
        1.82239         98.4939         11.5671 
        1.82853         97.8669         11.4735 
        1.83466         97.1481          11.381 
        1.84078         96.9284         11.2896 
        1.84692         96.1929         11.1991 
        1.85306         95.7327         11.1095 
         1.8592         95.3138          11.021 
        1.86533         94.6107         10.9335 
        1.87147         94.1964         10.8468 
        1.87761         93.7418         10.7611 
        1.88375         93.0862         10.6764 
        1.88988         92.7103         10.5927 
        1.89601         92.1892         10.5099 
        1.90215         91.7436         10.4278 
        1.90829         91.1944         10.3467 
        1.91442         90.8357         10.2665 
        1.92056         90.1984         10.1871 
         1.9267         89.9094         10.1086 
        1.93284         89.3963         10.0308 
        1.93897          88.923         9.95394 
        1.94509         88.5699         9.87809 
        1.95123         88.0637         9.80283 
        1.95737         87.5361         9.72831 
        1.96349         87.0458         9.65476 
        1.96964         86.5086         9.58175 
        1.97578         86.1261         9.50947 
        1.98192         85.9239         9.43809 
        1.98805         85.1177         9.36743 
        1.99419         84.8825         9.29749 
        2.00033         84.5162         9.22823 
        2.00647         83.9875          9.1597 
         2.0126         83.5404         9.09199 
        2.01874         82.9499         9.02485 
        2.02488         82.5795         8.95834 
        2.03101         82.1191         8.89262 
        2.03714         81.5996         8.82763 
        2.04328         81.3418         8.76321 
        2.04941         80.9543         8.69949 
        2.05554         80.5792         8.63645 
        2.06167         80.0974         8.57395 
        2.06781         79.5642         8.51207 
        2.07396          79.199          8.4507 
        2.08009         78.9248         8.39005 
        2.08622         78.4518         8.33007 
        2.09237         78.0264         8.27055 
        2.09851         77.7638         8.21161 
        2.10464         77.2146         8.15334 
        2.11077         76.9028          8.0957 
        2.11691         76.6072          8.0385 
        2.12305         75.9949         7.98184 
        2.12918         75.6411         7.92587 
        2.13531         75.3642         7.87043 
        2.14145         74.7592          7.8154 
         2.1476         74.4173         7.76082 
        2.15372         74.1556         7.70704 
        2.15985         73.7187         7.65372 
        2.16599         73.3721         7.60075 
        2.17213         73.0027         7.54834 
        2.17827         72.5807         7.49643 
         2.1844         72.1941         7.44506 
        2.19054         72.0489         7.39415 
        2.19666         71.5245          7.3438 
         2.2028         71.3744         7.29386 
        2.20893         70.8146         7.24437 
        2.21508          70.493         7.19528 
        2.22122         70.1285         7.14664 
        2.22736         69.7901         7.09854 
        2.23349          69.398          7.0509 
        2.23962         69.0113         7.00367 
        2.24577         68.7181         6.95684 
         2.2519         68.4356         6.91049 
        2.25802         68.0808         6.86465 
        2.26417         67.6061          6.8191 
        2.27031         67.3692         6.77391 
        2.27644         67.0119         6.72927 
        2.28257         66.6431         6.68504 
        2.28872         66.2989         6.64112 
        2.29486         65.8009          6.5976 
        2.30099         65.5228         6.55456 
        2.30712         65.3847         6.51189 
        2.31326         65.0741         6.46953 
         2.3194         64.6689         6.42757 
        2.32553         64.3157         6.38606 
        2.33166         63.9808         6.34492 
         2.3378         63.5584          6.3041 
        2.34394         63.3594         6.26362 
        2.35007         62.9973         6.22356 
        2.35619         62.7046         6.18389 
        2.36233         62.4345         6.14448 
        2.36848         62.1155         6.10533 
        2.37462         61.6839          6.0666 
        2.38075         61.5583         6.02825 
        2.38689         61.1724         5.99019 
        2.39303         60.8486         5.95247 
        2.39916         60.5453         5.91512 
        2.40529         60.3209         5.87809 
        2.41143         59.9986         5.84134 
        2.41757         59.6525          5.8049 
         2.4237         59.4982         5.76883 
        2.42983         59.0383         5.73308 
        2.43598         58.7498         5.69753 
        2.44211         58.5022         5.66234 
        2.44823         58.2309         5.62753 
        2.45437         57.8418         5.59291 
        2.46052         57.6059         5.55856 
        2.46665         57.3984         5.52456 
        2.47279         56.9896         5.49086 
        2.47892         56.7846         5.45741 
        2.48507         56.4821         5.42421 
         2.4912         56.2496         5.39135 
