# k  (h/Mpc)    Pcb(k)  (Mpc/h)^3    Pcb_linear(k)  (Mpc/h)^3
     0.00783031         14325.1         14529.7 
       0.013688         18021.2         17871.3 
       0.019231         18038.9         18010.5 
      0.0249154         16222.8         16560.1 
      0.0312784         14096.3         14253.6 
      0.0375637         12079.6         12086.5 
      0.0433917         10322.9         10508.2 
      0.0492413         9310.09         9382.18 
      0.0555754         8294.59          8559.5 
      0.0619321          7951.9         7954.23 
       0.067871          7211.6         7426.82 
      0.0738098         6647.31          6843.9 
      0.0800417         5920.12         6156.76 
      0.0862327         5320.13         5448.38 
      0.0921407         4805.45         4819.74 
      0.0982031         4257.67         4281.06 
       0.104506          3970.1         3861.64 
       0.110769         3670.09          3575.4 
       0.116806         3458.59         3386.43 
       0.122832         3306.44         3237.72 
       0.129052         3077.55         3083.51 
       0.135211         2913.37         2903.89 
       0.141259         2770.98          2697.6 
       0.147318          2590.3         2475.36 
       0.153489         2359.11         2255.91 
       0.159709         2217.35         2063.08 
       0.165845         2122.47         1912.19 
       0.171974         2003.24         1800.67 
       0.178125         1909.29         1719.25 
       0.184229         1832.25         1655.13 
        0.19034         1730.33         1593.98 
       0.196428         1695.78         1526.41 
       0.202534         1630.83         1448.39 
       0.208729         1549.64         1361.33 
       0.214876         1477.03         1273.56 
       0.220989         1422.84          1192.1 
       0.227147         1358.08         1121.22 
        0.23329         1303.17          1063.7 
       0.239377         1280.16         1018.42 
       0.245482         1199.45         981.218 
       0.251667         1192.66         947.467 
       0.257832         1146.22         913.785 
       0.263955         1108.33          878.01 
       0.270079         1068.43         839.593 
        0.27624         1055.71         799.563 
       0.282372         1011.01          760.53 
        0.28843         998.716         724.741 
       0.294538         948.034         692.784 
       0.300721         943.143          664.95 
        0.30691         903.918         640.967 
       0.313033         886.502          619.84 
       0.319153         867.515         599.927 
       0.325316         840.023         580.004 
        0.33145         819.431         559.745 
       0.337538           806.2         539.234 
       0.343633         785.301         518.755 
       0.349808         757.907         498.698 
       0.355968         752.878         479.988 
       0.362074         743.539         463.014 
       0.368217         721.201         447.583 
       0.374374         691.875         433.484 
       0.380519         691.537         420.384 
       0.386598         672.647          407.99 
       0.392688         670.311         395.794 
        0.39888         650.322           383.5 
       0.405048         639.957         371.375 
       0.411186         630.578         359.545 
       0.417313         617.675         348.179 
       0.423458          606.54         337.375 
       0.429607         597.662         327.217 
       0.435692         584.064         317.825 
       0.441815         579.214         308.944 
       0.447964          567.07         300.457 
       0.454126         558.284         292.269 
       0.460267         546.501         284.345 
       0.466387          540.37         276.615 
        0.47254         532.918         269.011 
       0.478662         530.044         261.663 
       0.484765         512.825         254.601 
       0.490885         509.018         247.809 
       0.497035         499.052         241.287 
       0.503198         494.294         235.063 
       0.509342         490.075         229.141 
       0.515458         485.882         223.476 
       0.521598         473.795         217.975 
       0.527764         465.566         212.612 
       0.533884         463.584         207.443 
           0.54         457.521         202.424 
       0.546137         455.201         197.534 
       0.552299         446.945         192.776 
       0.558452         444.573         188.189 
       0.564573          438.31         183.794 
       0.570708         432.012         179.555 
       0.576825         421.583          175.48 
       0.582926         421.239         171.549 
       0.589034         417.538         167.732 
       0.595184         413.869         163.999 
       0.601379         407.738         160.347 
       0.607522         402.015         156.832 
       0.613639         400.968         153.436 
       0.619772         391.811         150.132 
       0.625918         390.573         146.921 
       0.632068         384.483         143.804 
       0.638161         383.064         140.807 
         0.6443         376.447         137.878 
       0.650464          373.73         135.024 
       0.656582         371.216         132.274 
       0.662703          369.88         129.601 
       0.668861         363.358         126.989 
       0.675024         360.094         124.446 
       0.681124         357.459         121.999 
       0.687237         354.111         119.612 
       0.693381          349.13         117.277 
       0.699536         345.106         115.001 
       0.705665         343.048         112.795 
       0.711789         341.141         110.649 
       0.717957         338.339         108.545 
        0.72409         335.579         106.509 
       0.730186         331.515         104.538 
       0.736317         328.417         102.607 
       0.742472         326.822         100.719 
       0.748622         323.433           98.88 
        0.75476          319.89         97.0918 
       0.760888         316.471          95.351 
       0.767043         316.933         93.6464 
       0.773185          312.96         91.9872 
       0.779291         308.326          90.378 
       0.785407         307.543         88.8052 
       0.791564         303.788         87.2603 
       0.797719         301.354         85.7531 
       0.803834         298.791         84.2915 
       0.809972         297.898         82.8589 
       0.816124         297.293         81.4568 
       0.822261         293.222         80.0912 
       0.828378         291.041         78.7612 
       0.834502         288.942         77.4606 
       0.840667         286.126         76.1812 
       0.846816         284.603         74.9345 
       0.852925         282.838         73.7238 
       0.859047         280.786         72.5376 
       0.865192          277.49         71.3738 
       0.871341         275.477          70.235 
       0.877463         274.265         69.1263 
       0.883569         272.865         68.0446 
       0.889708         269.991         66.9807 
       0.895864         267.646          65.937 
       0.902008          266.12         64.9179 
       0.908149         264.524         63.9211 
       0.914301         261.423         62.9438 
       0.920448         259.958         61.9879 
       0.926574         257.399         61.0555 
       0.932687         257.642         60.1443 
       0.938823         254.603         59.2486 
       0.944975         253.587         58.3692 
       0.951105         251.793          57.511 
       0.957225         249.997         56.6716 
       0.963368         246.807         55.8463 
       0.969511         245.855         55.0374 
       0.975621         243.643          54.249 
       0.981748         243.514         53.4742 
       0.987916         241.482         52.7097 
        0.99406         238.336         51.9631 
        1.00019         238.191         51.2326 
        1.00632          236.54         50.5168 
        1.01246         234.588         49.8138 
        1.01859         234.837         49.1254 
        1.02471         231.164         48.4509 
        1.03085         229.535         47.7869 
        1.03698         228.687         47.1368 
        1.04314         226.426         46.4961 
        1.04929         225.089          45.869 
        1.05541         225.406         45.2559 
        1.06154         222.092         44.6527 
        1.06769         221.775         44.0596 
        1.07382         220.065         43.4793 
        1.07993         218.397         42.9108 
        1.08607         217.829         42.3501 
        1.09222         216.215          41.799 
        1.09836         214.568         41.2584 
        1.10449         212.369          40.728 
        1.11063         210.669         40.2064 
        1.11677         210.364         39.6941 
         1.1229         208.711         39.1918 
        1.12903         207.682         38.6977 
        1.13518         206.319         38.2118 
        1.14131         204.573         37.7346 
        1.14745         204.507         37.2658 
        1.15359         202.673          36.805 
        1.15973         201.276         36.3518 
        1.16584         199.732         35.9083 
        1.17197         199.573         35.4716 
        1.17811         197.436         35.0409 
        1.18424         196.426         34.6186 
        1.19038         195.897         34.2021 
        1.19652         194.281         33.7926 
        1.20267         193.772         33.3899 
        1.20881          191.98         32.9938 
        1.21495         190.974         32.6049 
        1.22108         189.815         32.2222 
         1.2272         188.384         31.8467 
        1.23334         187.757         31.4763 
        1.23949         186.328         31.1109 
        1.24562         185.468         30.7524 
        1.25174         184.022         30.4001 
        1.25789         182.798         30.0523 
        1.26402         181.456         29.7106 
        1.27014         180.233          29.375 
        1.27628         179.618         29.0437 
        1.28244         179.424         28.7168 
        1.28858         177.426         28.3955 
        1.29471         176.042         28.0798 
        1.30084         175.602         27.7692 
        1.30697         174.106         27.4629 
        1.31312         172.989         27.1608 
        1.31925         172.288         26.8642 
        1.32537         171.526         26.5724 
        1.33151         169.822         26.2839 
        1.33765         168.981         25.9998 
        1.34378         168.333         25.7205 
        1.34992          167.53         25.4451 
        1.35606          167.35         25.1732 
         1.3622         165.583         24.9057 
        1.36833         164.075         24.6428 
        1.37445         163.478         24.3838 
        1.38059         162.312         24.1278 
        1.38675         161.764         23.8749 
        1.39288         160.848         23.6265 
        1.39901         160.603         23.3819 
        1.40515         158.776         23.1402 
         1.4113         157.958          22.902 
        1.41742         156.943         22.6681 
        1.42355         156.159          22.437 
         1.4297         155.194         22.2084 
        1.43585         154.329         21.9832 
        1.44198         153.537         21.7619 
        1.44809         152.877         21.5441 
        1.45423         152.007         21.3286 
        1.46036          150.93         21.1163 
        1.46649         149.931         20.9069 
        1.47263         149.064         20.7002 
        1.47877         148.365         20.4963 
        1.48491         146.894         20.2949 
        1.49104         146.886         20.0967 
        1.49718         145.412         19.9009 
        1.50333         144.868         19.7075 
        1.50947         144.232          19.517 
         1.5156         143.242         19.3293 
        1.52172         142.468         19.1441 
        1.52787         141.361          18.961 
          1.534         140.914         18.7804 
        1.54013         140.031         18.6025 
        1.54627          139.32         18.4265 
        1.55241         138.324         18.2527 
        1.55855         137.524         18.0815 
        1.56467         136.817          17.913 
         1.5708         135.942         17.7461 
        1.57695         135.436         17.5811 
        1.58308         134.737         17.4186 
        1.58922          134.12          17.258 
        1.59535         133.039         17.0995 
         1.6015         132.631         16.9428 
        1.60764         131.847         16.7882 
        1.61376         131.015         16.6359 
        1.61989         130.227         16.4854 
        1.62604         129.398         16.3364 
        1.63218         129.047         16.1894 
        1.63831         128.049         16.0445 
        1.64444         127.563         15.9013 
        1.65059          126.92         15.7596 
        1.65673         125.766         15.6197 
        1.66285         125.485         15.4819 
        1.66898         124.666         15.3458 
        1.67512         124.322          15.211 
        1.68127         123.253         15.0778 
         1.6874         122.311         14.9464 
        1.69353           122.1         14.8167 
        1.69967         121.413         14.6882 
        1.70581         120.647         14.5613 
        1.71193          120.01         14.4363 
        1.71806         119.444         14.3126 
        1.72421          118.65         14.1901 
        1.73035          118.52         14.0691 
        1.73649         117.593         13.9496 
        1.74262         116.756         13.8316 
        1.74876         116.433         13.7149 
        1.75489         115.504         13.5997 
        1.76101         114.818          13.486 
        1.76715         114.293         13.3733 
        1.77329         113.999         13.2619 
        1.77943         112.975         13.1516 
        1.78557         112.574         13.0428 
        1.79171         111.762         12.9352 
        1.79785         111.213         12.8288 
        1.80399         110.504         12.7236 
        1.81012         110.052         12.6197 
        1.81625         109.486          12.517 
        1.82239         109.147         12.4154 
        1.82853         108.354         12.3149 
        1.83466         107.627         12.2156 
        1.84078         107.287         12.1175 
        1.84692         106.414         12.0204 
        1.85306         106.122         11.9242 
         1.8592         105.469         11.8292 
        1.86533         104.615         11.7353 
        1.87147         104.261         11.6423 
        1.87761         103.645         11.5503 
        1.88375         102.906         11.4594 
        1.88988         102.567         11.3695 
        1.89601         101.902         11.2806 
        1.90215         101.422         11.1926 
        1.90829         100.895         11.1055 
        1.91442         100.397         11.0194 
        1.92056         99.7181         10.9342 
         1.9267         99.4323         10.8499 
        1.93284         98.8754         10.7664 
        1.93897         98.2533         10.6839 
        1.94509         97.8589         10.6025 
        1.95123         97.2786         10.5217 
        1.95737         96.7652         10.4418 
        1.96349         96.2336         10.3628 
        1.96964          95.462         10.2844 
        1.97578         95.0555         10.2069 
        1.98192           94.89         10.1302 
        1.98805         94.0334         10.0544 
        1.99419         93.8039         9.97933 
        2.00033          93.194           9.905 
        2.00647         92.7911         9.83144 
         2.0126         92.2058         9.75876 
        2.01874         91.5953          9.6867 
        2.02488          91.218         9.61531 
        2.03101         90.5799         9.54478 
        2.03714         90.0611         9.47501 
        2.04328         89.7763         9.40587 
        2.04941         89.3098         9.33748 
        2.05554         88.7857         9.26982 
        2.06167         88.3752         9.20274 
        2.06781         87.7773         9.13631 
        2.07396         87.3786         9.07045 
        2.08009          87.096         9.00535 
        2.08622         86.4865         8.94096 
        2.09237         86.0298         8.87708 
        2.09851         85.6754         8.81382 
        2.10464         85.1517         8.75127 
        2.11077         84.8215         8.68941 
        2.11691         84.4554         8.62801 
        2.12305         83.7499          8.5672 
        2.12918         83.3101         8.50713 
        2.13531         83.0799         8.44762 
        2.14145         82.3181         8.38855 
         2.1476         81.9379         8.32997 
        2.15372         81.6796         8.27225 
        2.15985         81.2566         8.21502 
        2.16599         80.7683         8.15816 
        2.17213         80.3748          8.1019 
        2.17827         79.9498         8.04619 
         2.1844         79.4676         7.99105 
        2.19054         79.2918         7.93641 
        2.19666         78.7564         7.88236 
         2.2028         78.4636         7.82877 
        2.20893         77.9323         7.77565 
        2.21508         77.5434         7.72296 
        2.22122          77.138         7.67074 
        2.22736         76.7965         7.61912 
        2.23349          76.397         7.56799 
        2.23962         75.9841          7.5173 
        2.24577         75.6646         7.46702 
         2.2519         75.3186         7.41728 
        2.25802         74.8697         7.36808 
        2.26417         74.3994         7.31918 
        2.27031         74.1383         7.27069 
        2.27644         73.6476         7.22277 
        2.28257         73.2407         7.17529 
        2.28872          72.933         7.12815 
        2.29486         72.3892         7.08145 
        2.30099         72.0221         7.03525 
        2.30712         71.8357         6.98945 
        2.31326         71.4929         6.94398 
         2.3194         71.0611         6.89895 
        2.32553         70.6994         6.85439 
        2.33166         70.3801         6.81024 
         2.3378         69.8405         6.76642 
        2.34394         69.5943         6.72297 
        2.35007         69.2243         6.67997 
        2.35619         68.9158          6.6374 
        2.36233         68.5603         6.59509 
        2.36848         68.2151         6.55307 
        2.37462          67.738          6.5115 
        2.38075         67.5941         6.47034 
        2.38689         67.1472         6.42949 
        2.39303         66.7896         6.38901 
        2.39916         66.4331         6.34891 
        2.40529         66.2765         6.30916 
        2.41143         65.8065         6.26973 
        2.41757         65.5202         6.23061 
         2.4237         65.2803          6.1919 
        2.42983          64.835         6.15352 
        2.43598         64.5071         6.11536 
        2.44211         64.2359          6.0776 
        2.44823         63.9127         6.04023 
        2.45437         63.4473         6.00308 
        2.46052         63.2203         5.96621 
        2.46665         62.9911         5.92971 
        2.47279         62.5567         5.89354 
        2.47892         62.3285         5.85764 
        2.48507         61.9076           5.822 
         2.4912         61.6472         5.78673 
