# k  (h/Mpc)    P(k)  (Mpc/h)^3    P_linear(k)  (Mpc/h)^3
     0.00783031         4144.76         4207.65 
       0.013688            5169         5171.64 
       0.019231         5204.41         5210.06 
      0.0249154         4733.12         4789.47 
      0.0312784         4102.51          4121.8 
      0.0375637         3499.69         3494.79 
      0.0433917          3017.3         3038.23 
      0.0492413         2708.27         2712.54 
      0.0555754         2442.49          2474.6 
      0.0619321         2309.63         2299.55 
       0.067871         2123.58         2147.03 
      0.0738098          1955.9         1978.48 
      0.0800417         1750.38         1779.81 
      0.0862327         1561.47         1575.01 
      0.0921407         1392.64         1393.27 
      0.0982031         1232.32         1237.54 
       0.104506         1131.56         1116.29 
       0.110769         1046.07         1033.54 
       0.116806         982.575         978.907 
       0.122832         944.065         935.916 
       0.129052          887.91         891.338 
       0.135211         837.461         839.412 
       0.141259         787.163         779.777 
       0.147318         729.006         715.536 
       0.153489         662.482         652.099 
       0.159709         612.953         596.356 
       0.165845         577.727         552.739 
       0.171974         540.165         520.502 
       0.178125         516.966         496.966 
       0.184229         498.787         478.432 
        0.19034         470.444         460.756 
       0.196428         458.482         441.222 
       0.202534         441.196          418.67 
       0.208729         414.386         393.503 
       0.214876         387.605         368.133 
       0.220989          370.52         344.584 
       0.227147         347.154         324.097 
        0.23329         331.412          307.47 
       0.239377         321.537         294.383 
       0.245482         302.967         283.628 
       0.251667           298.4         273.872 
       0.257832         288.439         264.136 
       0.263955         277.545         253.794 
       0.270079         266.566          242.69 
        0.27624         259.762         231.119 
       0.282372          248.51         219.836 
        0.28843         237.985          209.49 
       0.294538         227.576         200.253 
       0.300721         223.485         192.208 
        0.30691         213.312         185.275 
       0.313033         207.758         179.168 
       0.319153         198.918         173.412 
       0.325316         194.961         167.653 
        0.33145          187.92         161.797 
       0.337538         184.259         155.868 
       0.343633         177.661         149.949 
       0.349808         171.939         144.151 
       0.355968         167.934         138.743 
       0.362074         162.801         133.836 
       0.368217         158.191         129.376 
       0.374374         153.459           125.3 
       0.380519          150.12         121.514 
       0.386598         146.134         117.931 
       0.392688         143.563         114.406 
        0.39888          139.67         110.853 
       0.405048         136.305         107.348 
       0.411186         133.153         103.928 
       0.417313         129.568         100.643 
       0.423458         126.593         97.5199 
       0.429607         123.391         94.5832 
       0.435692         119.358         91.8688 
       0.441815         118.276         89.3016 
       0.447964         116.246         86.8485 
       0.454126         111.153         84.4817 
       0.460267         109.779          82.191 
       0.466387         107.613         79.9568 
        0.47254         105.658         77.7588 
       0.478662         104.214         75.6349 
       0.484765         101.218         73.5936 
       0.490885         99.3204         71.6303 
       0.497035         98.0331         69.7447 
       0.503198         95.3165          67.946 
       0.509342         93.2416         66.2341 
       0.515458           91.79         64.5968 
       0.521598           90.49         63.0067 
       0.527764          88.963         61.4564 
       0.533884         87.4789         59.9621 
           0.54         85.7365         58.5116 
       0.546137         84.8074         57.0978 
       0.552299         83.5023         55.7226 
       0.558452         81.3246         54.3967 
       0.564573         79.8738         53.1263 
       0.570708         78.8958         51.9011 
       0.576825          77.531         50.7232 
       0.582926         75.9808          49.587 
       0.589034         74.4309         48.4837 
       0.595184         73.5367         47.4045 
       0.601379         72.5668         46.3491 
       0.607522         70.8154          45.333 
       0.613639         70.6002         44.3512 
       0.619772         68.9005         43.3963 
       0.625918         68.3476          42.468 
       0.632068         67.4264         41.5671 
       0.638161         66.4193         40.7009 
         0.6443          65.403         39.8541 
       0.650464         64.4597         39.0291 
       0.656582          63.792         38.2342 
       0.662703         62.5128         37.4617 
       0.668861         61.7647         36.7065 
       0.675024         60.9324         35.9717 
       0.681124         59.9773         35.2643 
       0.687237         58.9567         34.5743 
       0.693381         58.4665         33.8995 
       0.699536            57.4         33.2414 
       0.705665         57.6369         32.6037 
       0.711789         56.0743         31.9835 
       0.717957         55.5727         31.3754 
        0.72409         54.8178         30.7867 
       0.730186         53.9369         30.2171 
       0.736317         53.7007         29.6589 
       0.742472         52.8481         29.1131 
       0.748622         52.3829         28.5816 
        0.75476         51.7197         28.0647 
       0.760888         50.9402         27.5616 
       0.767043         50.4072         27.0688 
       0.773185         49.7312         26.5892 
       0.779291         49.4965         26.1241 
       0.785407         48.9911         25.6695 
       0.791564         48.2087         25.2229 
       0.797719         47.3852         24.7873 
       0.803834         47.2782         24.3648 
       0.809972         46.5495         23.9507 
       0.816124          45.876         23.5454 
       0.822261         45.5682         23.1506 
       0.828378         45.2342         22.7662 
       0.834502         44.6843         22.3903 
       0.840667         44.2696         22.0204 
       0.846816         43.6217         21.6601 
       0.852925          43.257         21.3101 
       0.859047         42.6932         20.9673 
       0.865192         42.3926         20.6308 
       0.871341         42.2056         20.3017 
       0.877463         41.3433         19.9812 
       0.883569         41.0398         19.6685 
       0.889708         40.7541          19.361 
       0.895864         40.3638         19.0593 
       0.902008         40.0128         18.7648 
       0.908149          39.645         18.4766 
       0.914301         39.4529         18.1941 
       0.920448         38.8384         17.9178 
       0.926574         38.5549         17.6483 
       0.932687          38.188         17.3849 
       0.938823         37.6444          17.126 
       0.944975         37.5121         16.8718 
       0.951105          37.147         16.6238 
       0.957225         36.6897         16.3811 
       0.963368         36.6134         16.1426 
       0.969511         36.2753         15.9088 
       0.975621         35.9731         15.6809 
       0.981748         35.4977         15.4569 
       0.987916         35.3261         15.2359 
        0.99406         35.0351         15.0201 
        1.00019         34.6017          14.809 
        1.00632         34.4256         14.6021 
        1.01246         34.1952         14.3989 
        1.01859         33.7133         14.1999 
        1.02471         33.7098         14.0049 
        1.03085         33.3773          13.813 
        1.03698         32.9165         13.6251 
        1.04314         32.6712         13.4399 
        1.04929         32.4589         13.2586 
        1.05541         32.1098         13.0814 
        1.06154         32.0184          12.907 
        1.06769         31.7539         12.7356 
        1.07382         31.4899         12.5678 
        1.07993         31.3712         12.4035 
        1.08607         30.9456         12.2415 
        1.09222         30.8501         12.0821 
        1.09836         30.5245         11.9259 
        1.10449          30.341         11.7726 
        1.11063         29.9514         11.6218 
        1.11677         29.8513         11.4737 
         1.1229         29.7351         11.3285 
        1.12903         29.3267         11.1857 
        1.13518         29.1789         11.0453 
        1.14131         29.1033         10.9073 
        1.14745         28.7959         10.7718 
        1.15359         28.7104         10.6386 
        1.15973         28.3717         10.5076 
        1.16584         28.1021         10.3794 
        1.17197         28.1352         10.2532 
        1.17811         27.7581         10.1287 
        1.18424         27.5305         10.0066 
        1.19038         27.4905         9.88624 
        1.19652         27.3132         9.76788 
        1.20267         27.1124         9.65147 
        1.20881          26.897         9.53699 
        1.21495         26.7189         9.42455 
        1.22108         26.5427         9.31395 
         1.2272         26.2576         9.20539 
        1.23334         26.1771         9.09833 
        1.23949         25.9913         8.99272 
        1.24562         25.8722         8.88909 
        1.25174         25.7331         8.78726 
        1.25789         25.5305         8.68672 
        1.26402         25.4135         8.58794 
        1.27014         25.1395         8.49095 
        1.27628           24.99         8.39517 
        1.28244         24.8923          8.3007 
        1.28858         24.7894         8.20782 
        1.29471         24.6008         8.11657 
        1.30084         24.4369          8.0268 
        1.30697         24.2637         7.93826 
        1.31312         24.0464         7.85094 
        1.31925         23.9544         7.76521 
        1.32537         23.8692         7.68085 
        1.33151         23.6633         7.59744 
        1.33765         23.6042         7.51533 
        1.34378         23.4712          7.4346 
        1.34992         23.1674         7.35501 
        1.35606          23.116          7.2764 
         1.3622         22.9763         7.19909 
        1.36833         22.8292          7.1231 
        1.37445         22.8108         7.04824 
        1.38059         22.6312         6.97423 
        1.38675         22.3913         6.90111 
        1.39288         22.3601         6.82934 
        1.39901         22.1732         6.75862 
        1.40515         22.0927         6.68875 
         1.4113         21.9522          6.6199 
        1.41742          21.749         6.55228 
        1.42355         21.7215         6.48549 
         1.4297         21.5933         6.41943 
        1.43585         21.5392         6.35432 
        1.44198         21.3148         6.29036 
        1.44809         21.2317         6.22741 
        1.45423         21.1389          6.1651 
        1.46036         21.0627         6.10375 
        1.46649         20.9164         6.04321 
        1.47263          20.771         5.98346 
        1.47877         20.6829         5.92454 
        1.48491         20.5775         5.86632 
        1.49104         20.5328         5.80901 
        1.49718         20.3346         5.75243 
        1.50333         20.2814         5.69651 
        1.50947         20.1958         5.64145 
         1.5156         20.0172         5.58721 
        1.52172         19.8906         5.53367 
        1.52787          19.882         5.48073 
          1.534         19.7185         5.42855 
        1.54013         19.5622         5.37711 
        1.54627         19.5191         5.32624 
        1.55241         19.3985         5.27602 
        1.55855         19.2923         5.22653 
        1.56467         19.2202          5.1778 
         1.5708         19.1574         5.12957 
        1.57695         18.9704         5.08187 
        1.58308         18.9917          5.0349 
        1.58922         18.8493         4.98849 
        1.59535         18.7385         4.94268 
         1.6015         18.6412         4.89739 
        1.60764         18.5927         4.85268 
        1.61376         18.4815         4.80867 
        1.61989         18.3238         4.76516 
        1.62604         18.3197          4.7221 
        1.63218         18.1895         4.67959 
        1.63831         18.1521         4.63772 
        1.64444          17.994         4.59633 
        1.65059         17.9195         4.55536 
        1.65673         17.8674         4.51494 
        1.66285         17.7447         4.47511 
        1.66898         17.7061         4.43576 
        1.67512         17.6285          4.3968 
        1.68127          17.511         4.35828 
         1.6874         17.4222         4.32031 
        1.69353         17.3734         4.28281 
        1.69967          17.248         4.24567 
        1.70581         17.1826         4.20898 
        1.71193         17.0874         4.17287 
        1.71806         17.0263         4.13711 
        1.72421         16.9369         4.10169 
        1.73035         16.8772         4.06673 
        1.73649         16.7865         4.03219 
        1.74262         16.7619         3.99808 
        1.74876         16.6553         3.96434 
        1.75489         16.5832         3.93106 
        1.76101         16.4962         3.89817 
        1.76715         16.4679         3.86561 
        1.77329          16.361         3.83339 
        1.77943         16.2703         3.80152 
        1.78557         16.2244         3.77007 
        1.79171         16.1754         3.73896 
        1.79785         16.0423          3.7082 
        1.80399         15.9881         3.67779 
        1.81012           15.96         3.64777 
        1.81625         15.8552          3.6181 
        1.82239          15.826         3.58871 
        1.82853         15.6886         3.55966 
        1.83466         15.6249         3.53097 
        1.84078         15.5251         3.50262 
        1.84692         15.5255         3.47454 
        1.85306         15.4336         3.44673 
         1.8592         15.3746         3.41928 
        1.86533         15.3215         3.39213 
        1.87147         15.2437         3.36525 
        1.87761         15.2098         3.33866 
        1.88375         15.0853         3.31238 
        1.88988         15.0649         3.28641 
        1.89601         14.9876          3.2607 
        1.90215         14.9124         3.23525 
        1.90829         14.8748         3.21009 
        1.91442         14.8082         3.18519 
        1.92056         14.7496         3.16058 
         1.9267          14.689          3.1362 
        1.93284         14.6009         3.11206 
        1.93897          14.539         3.08823 
        1.94509         14.4866          3.0647 
        1.95123         14.4247         3.04135 
        1.95737         14.3744         3.01823 
        1.96349         14.3125         2.99541 
        1.96964         14.2481         2.97276 
        1.97578            14.2         2.95033 
        1.98192         14.1101         2.92819 
        1.98805         14.0856         2.90626 
        1.99419         14.0056         2.88457 
        2.00033         13.9548         2.86308 
        2.00647         13.9146         2.84182 
         2.0126         13.8194         2.82081 
        2.01874         13.7665         2.79998 
        2.02488         13.7063         2.77934 
        2.03101         13.6996         2.75895 
        2.03714         13.6384         2.73879 
        2.04328          13.553          2.7188 
        2.04941         13.4834         2.69904 
        2.05554         13.4898         2.67948 
        2.06167          13.407         2.66009 
        2.06781         13.3682         2.64089 
        2.07396         13.3226         2.62185 
        2.08009         13.2612         2.60303 
        2.08622         13.1772         2.58442 
        2.09237         13.1502         2.56596 
        2.09851         13.0996         2.54767 
        2.10464         13.0357         2.52959 
        2.11077         12.9808         2.51171 
        2.11691         12.9417         2.49396 
        2.12305         12.8853         2.47638 
        2.12918         12.8279         2.45902 
        2.13531         12.8008         2.44182 
        2.14145         12.7247         2.42474 
         2.1476         12.7069         2.40781 
        2.15372         12.6533         2.39113 
        2.15985         12.5822         2.37458 
        2.16599         12.5522         2.35815 
        2.17213         12.5155         2.34189 
        2.17827         12.4698         2.32578 
         2.1844         12.4169         2.30985 
        2.19054         12.3465         2.29405 
        2.19666         12.3297         2.27843 
         2.2028         12.2786         2.26294 
        2.20893         12.2339         2.24758 
        2.21508         12.1693         2.23235 
        2.22122         12.1178         2.21726 
        2.22736         12.0783         2.20234 
        2.23349         12.0188         2.18756 
        2.23962         11.9889          2.1729 
        2.24577         11.9302         2.15837 
         2.2519         11.9179           2.144 
        2.25802         11.8643         2.12977 
        2.26417         11.8259         2.11564 
        2.27031         11.7704         2.10162 
        2.27644         11.7226         2.08777 
        2.28257         11.6856         2.07405 
        2.28872         11.6392         2.06042 
        2.29486          11.617         2.04692 
        2.30099         11.5841         2.03357 
        2.30712          11.527         2.02033 
        2.31326         11.4928         2.00719 
         2.3194         11.4284         1.99417 
        2.32553         11.4005         1.98129 
        2.33166         11.3207         1.96853 
         2.3378         11.3107         1.95586 
        2.34394         11.2686          1.9433 
        2.35007          11.212         1.93087 
        2.35619         11.1718         1.91857 
        2.36233         11.1301         1.90634 
        2.36848         11.1213         1.89419 
        2.37462         11.0863         1.88218 
        2.38075         11.0054         1.87028 
        2.38689         10.9824         1.85847 
        2.39303         10.9501         1.84677 
        2.39916         10.9156         1.83518 
        2.40529         10.8772         1.82369 
        2.41143          10.834         1.81229 
        2.41757         10.8098         1.80098 
         2.4237         10.7547         1.78979 
        2.42983         10.7188          1.7787 
        2.43598          10.699         1.76767 
        2.44211         10.6368         1.75675 
        2.44823         10.5987         1.74595 
        2.45437         10.5871         1.73522 
        2.46052         10.5329         1.72456 
        2.46665         10.4853         1.71401 
        2.47279         10.4505         1.70355 
        2.47892         10.4216         1.69317 
        2.48507         10.3952         1.68287 
         2.4912         10.3595         1.67268 
