# k  (h/Mpc)    Pcb(k)  (Mpc/h)^3    Pcb_linear(k)  (Mpc/h)^3
     0.00783031         1223.45         1235.51 
       0.013688         1518.79         1520.73 
       0.019231         1533.77         1533.61 
      0.0249154         1402.87         1410.84 
      0.0312784         1213.79         1214.78 
      0.0375637         1033.14         1030.29 
      0.0433917         894.624         895.879 
      0.0492413         801.017         799.969 
      0.0555754         726.397         729.891 
      0.0619321         681.346         678.324 
       0.067871         630.862         633.378 
      0.0738098         581.092         583.689 
      0.0800417         521.378         525.103 
      0.0862327         463.494         464.699 
      0.0921407         411.351         411.091 
      0.0982031         364.529         365.152 
       0.104506         331.847         329.383 
       0.110769         306.905         304.972 
       0.116806         288.862         288.856 
       0.122832         277.278         276.175 
       0.129052         262.358         263.023 
       0.135211         247.041         247.703 
       0.141259         230.855         230.108 
       0.147318         212.971         211.153 
       0.153489         193.653         192.434 
       0.159709         177.753         175.986 
       0.165845         166.341         163.115 
       0.171974         155.439         153.603 
       0.178125         148.738         146.658 
       0.184229         143.499         141.189 
        0.19034         136.641         135.973 
       0.196428         131.963         130.209 
       0.202534         126.376         123.555 
       0.208729         118.403         116.128 
       0.214876          110.47         108.641 
       0.220989         104.699         101.692 
       0.227147         97.7801         95.6457 
        0.23329          92.979         90.7391 
       0.239377         89.4997         86.8769 
       0.245482         85.4219         83.7033 
       0.251667         83.3907         80.8242 
       0.257832           80.38         77.9511 
       0.263955         77.3191         74.8993 
       0.270079         74.1078         71.6222 
        0.27624         71.3724         68.2075 
       0.282372         68.0864         64.8778 
        0.28843         64.7497         61.8248 
       0.294538         61.9978         59.0987 
       0.300721         60.1505         56.7244 
        0.30691         57.5727         54.6785 
       0.313033          55.809         52.8763 
       0.319153         53.4016         51.1776 
       0.325316         52.5056         49.4781 
        0.33145         50.5429         47.7499 
       0.337538         48.9629         46.0002 
       0.343633         47.0629         44.2532 
       0.349808         45.5348         42.5422 
       0.355968         44.0058         40.9462 
       0.362074         42.4855         39.4982 
       0.368217         41.1886         38.1819 
       0.374374          39.844         36.9791 
       0.380519         38.8485         35.8616 
       0.386598         37.8122         34.8044 
       0.392688         36.9266          33.764 
        0.39888         35.7777         32.7152 
       0.405048         34.8328         31.6809 
       0.411186         33.8951         30.6717 
       0.417313          32.728         29.7021 
       0.423458         31.8496         28.7804 
       0.429607         30.9209         27.9139 
       0.435692         29.9992         27.1127 
       0.441815         29.3736         26.3551 
       0.447964         28.8323         25.6311 
       0.454126         27.7698         24.9327 
       0.460267         27.2129         24.2566 
       0.466387         26.3753         23.5972 
        0.47254         25.9078         22.9486 
       0.478662          25.385         22.3218 
       0.484765         24.6115         21.7193 
       0.490885         24.0183         21.1399 
       0.497035           23.68         20.5835 
       0.503198         23.0355         20.0525 
       0.509342         22.4597         19.5474 
       0.515458         21.9447         19.0642 
       0.521598         21.5271         18.5949 
       0.527764         21.0202         18.1374 
       0.533884         20.6539         17.6964 
           0.54         20.1822         17.2683 
       0.546137         19.8073         16.8511 
       0.552299         19.4405         16.4452 
       0.558452          18.843         16.0539 
       0.564573         18.5749          15.679 
       0.570708         18.2193         15.3173 
       0.576825         17.7482         14.9697 
       0.582926         17.4318         14.6344 
       0.589034         16.9548         14.3088 
       0.595184          16.708         13.9903 
       0.601379         16.3551         13.6788 
       0.607522         16.1008          13.379 
       0.613639         15.8914         13.0892 
       0.619772          15.462         12.8074 
       0.625918          15.336         12.5334 
       0.632068         15.0794         12.2675 
       0.638161         14.7206         12.0119 
         0.6443         14.4195          11.762 
       0.650464         14.1364         11.5185 
       0.656582         14.0222         11.2839 
       0.662703         13.7571          11.056 
       0.668861         13.5016         10.8331 
       0.675024         13.2359         10.6162 
       0.681124          13.005         10.4074 
       0.687237         12.8034         10.2038 
       0.693381         12.6377         10.0046 
       0.699536         12.2953         9.81043 
       0.705665         12.1784         9.62223 
       0.711789         11.9605         9.43919 
       0.717957         11.7664         9.25972 
        0.72409         11.5699         9.08599 
       0.730186         11.4114         8.91786 
       0.736317          11.285         8.75314 
       0.742472         11.1004         8.59204 
       0.748622         10.9262          8.4352 
        0.75476         10.7041         8.28266 
       0.760888         10.5691         8.13416 
       0.767043          10.439         7.98874 
       0.773185         10.2276          7.8472 
       0.779291         10.1487         7.70992 
       0.785407         9.98942         7.57575 
       0.791564         9.82903         7.44396 
       0.797719         9.64868         7.31539 
       0.803834         9.58819          7.1907 
       0.809972         9.48407         7.06849 
       0.816124          9.2802         6.94888 
       0.822261         9.14408         6.83238 
       0.828378         9.03394         6.71893 
       0.834502         8.95632         6.60797 
       0.840667         8.79234         6.49883 
       0.846816          8.6426         6.39248 
       0.852925         8.56612          6.2892 
       0.859047         8.45567           6.188 
       0.865192         8.37634         6.08872 
       0.871341         8.28413         5.99157 
       0.877463         8.14867           5.897 
       0.883569         8.01916         5.80472 
       0.889708         7.89101         5.71396 
       0.895864          7.8225         5.62493 
       0.902008         7.73541         5.53799 
       0.908149         7.65115         5.45295 
       0.914301         7.54038         5.36958 
       0.920448         7.42985         5.28804 
       0.926574         7.33833          5.2085 
       0.932687         7.26719         5.13077 
       0.938823         7.17076         5.05436 
       0.944975         7.07761         4.97934 
       0.951105         7.00863         4.90613 
       0.957225         6.97067         4.83452 
       0.963368         6.87221         4.76411 
       0.969511         6.78938         4.69511 
       0.975621         6.70205         4.62786 
       0.981748         6.63168         4.56175 
       0.987916         6.56723         4.49654 
        0.99406         6.45939         4.43285 
        1.00019         6.37165         4.37053 
        1.00632         6.34521         4.30947 
        1.01246          6.2702          4.2495 
        1.01859          6.1839         4.19077 
        1.02471         6.12683         4.13323 
        1.03085         6.05995         4.07659 
        1.03698         5.97793         4.02113 
        1.04314         5.93368         3.96648 
        1.04929          5.8573         3.91297 
        1.05541         5.78949         3.86068 
        1.06154          5.7413         3.80922 
        1.06769          5.7089         3.75862 
        1.07382         5.61556         3.70911 
        1.07993         5.55615         3.66062 
        1.08607         5.52313         3.61279 
        1.09222         5.46099         3.56577 
        1.09836          5.4061         3.51965 
        1.10449         5.35062         3.47441 
        1.11063          5.2944         3.42991 
        1.11677         5.25499         3.38621 
         1.1229         5.20479         3.34336 
        1.12903         5.14198         3.30121 
        1.13518         5.09078         3.25976 
        1.14131         5.02939         3.21905 
        1.14745          4.9711         3.17906 
        1.15359         4.94446         3.13975 
        1.15973          4.8886         3.10109 
        1.16584         4.83698         3.06325 
        1.17197         4.79551           3.026 
        1.17811         4.76523         2.98926 
        1.18424         4.72235         2.95323 
        1.19038         4.68843          2.9177 
        1.19652         4.63762         2.88277 
        1.20267         4.58836         2.84841 
        1.20881         4.55791         2.81463 
        1.21495         4.51661         2.78144 
        1.22108         4.46995          2.7488 
         1.2272         4.44361         2.71676 
        1.23334         4.38539         2.68517 
        1.23949         4.34448           2.654 
        1.24562         4.32268         2.62341 
        1.25174         4.27228         2.59336 
        1.25789         4.24334         2.56369 
        1.26402         4.20569         2.53454 
        1.27014         4.16719         2.50591 
        1.27628         4.13683         2.47765 
        1.28244         4.08598         2.44977 
        1.28858          4.0712         2.42235 
        1.29471          4.0236         2.39542 
        1.30084         3.98567         2.36893 
        1.30697         3.98228          2.3428 
        1.31312         3.90843         2.31703 
        1.31925         3.89114         2.29173 
        1.32537         3.85714         2.26683 
        1.33151         3.83998         2.24221 
        1.33765         3.78934         2.21798 
        1.34378         3.76461         2.19416 
        1.34992         3.74725         2.17066 
        1.35606         3.69589         2.14747 
         1.3622         3.68242         2.12465 
        1.36833         3.65048         2.10222 
        1.37445         3.62098         2.08013 
        1.38059          3.6055         2.05829 
        1.38675          3.5792         2.03671 
        1.39288         3.54462         2.01553 
        1.39901         3.50707         1.99466 
        1.40515         3.48453         1.97403 
         1.4113         3.46147         1.95371 
        1.41742          3.4373         1.93376 
        1.42355         3.41006         1.91405 
         1.4297          3.3793         1.89455 
        1.43585         3.36532         1.87533 
        1.44198         3.34512         1.85646 
        1.44809         3.30794         1.83788 
        1.45423          3.2825         1.81949 
        1.46036         3.25541         1.80138 
        1.46649         3.23322         1.78352 
        1.47263         3.20798         1.76588 
        1.47877         3.18087         1.74849 
        1.48491         3.16049         1.73131 
        1.49104          3.1437          1.7144 
        1.49718          3.1208          1.6977 
        1.50333         3.10032          1.6812 
        1.50947         3.07661         1.66495 
         1.5156         3.05425         1.64894 
        1.52172          3.0346         1.63314 
        1.52787         3.01453         1.61752 
          1.534         2.99003         1.60212 
        1.54013         2.97349         1.58693 
        1.54627         2.94569         1.57192 
        1.55241         2.92464          1.5571 
        1.55855         2.91253         1.54249 
        1.56467         2.89303         1.52811 
         1.5708         2.86795         1.51388 
        1.57695         2.84749          1.4998 
        1.58308         2.82679         1.48594 
        1.58922         2.81637         1.47224 
        1.59535          2.7959         1.45872 
         1.6015         2.77563         1.44535 
        1.60764           2.759         1.43216 
        1.61376         2.74288         1.41917 
        1.61989         2.72219         1.40633 
        1.62604         2.70215         1.39362 
        1.63218         2.69505         1.38108 
        1.63831         2.66911         1.36872 
        1.64444         2.65203          1.3565 
        1.65059          2.6358         1.34441 
        1.65673         2.62218         1.33248 
        1.66285         2.60022         1.32073 
        1.66898          2.5877         1.30911 
        1.67512         2.56578         1.29762 
        1.68127         2.55176         1.28625 
         1.6874         2.54405         1.27504 
        1.69353         2.51361         1.26397 
        1.69967         2.50284         1.25301 
        1.70581          2.4952         1.24219 
        1.71193         2.47502         1.23153 
        1.71806         2.46428         1.22097 
        1.72421         2.44784         1.21052 
        1.73035          2.4335         1.20021 
        1.73649         2.41627         1.19001 
        1.74262         2.40152         1.17994 
        1.74876         2.39359         1.16998 
        1.75489         2.37276         1.16016 
        1.76101         2.35649         1.15046 
        1.76715         2.34686         1.14085 
        1.77329         2.33551         1.13134 
        1.77943         2.31312         1.12193 
        1.78557         2.30439         1.11265 
        1.79171         2.29498         1.10347 
        1.79785         2.27598         1.09439 
        1.80399         2.26469         1.08542 
        1.81012         2.25528         1.07656 
        1.81625         2.23929          1.0678 
        1.82239         2.22458         1.05913 
        1.82853         2.20793         1.05055 
        1.83466         2.20348         1.04209 
        1.84078         2.18929         1.03372 
        1.84692         2.17963         1.02543 
        1.85306         2.16152         1.01723 
         1.8592         2.14968         1.00912 
        1.86533         2.13812         1.00111 
        1.87147         2.13063        0.993179 
        1.87761         2.11627        0.985329 
        1.88375         2.10173        0.977573 
        1.88988         2.09332        0.969909 
        1.89601         2.08026        0.962323 
        1.90215          2.0652        0.954812 
        1.90829         2.05326        0.947385 
        1.91442         2.04792        0.940037 
        1.92056         2.03379        0.932773 
         1.9267         2.02424        0.925578 
        1.93284           2.017        0.918455 
        1.93897         2.00466        0.911421 
        1.94509         1.99048        0.904476 
        1.95123         1.97837        0.897585 
        1.95737         1.96839        0.890762 
        1.96349         1.96065        0.884027 
        1.96964         1.95345        0.877342 
        1.97578         1.93852        0.870724 
        1.98192         1.93025        0.864188 
        1.98805          1.9195        0.857718 
        1.99419         1.91178        0.851314 
        2.00033         1.90579        0.844973 
        2.00647            1.89        0.838698 
         2.0126         1.88385        0.832498 
        2.01874         1.86885        0.826351 
        2.02488         1.86358         0.82026 
        2.03101         1.84838        0.814243 
        2.03714         1.84048        0.808292 
        2.04328         1.83384        0.802394 
        2.04941         1.81993        0.796559 
        2.05554         1.81513        0.790787 
        2.06167         1.80503        0.785064 
        2.06781         1.79905        0.779398 
        2.07396         1.78909        0.773779 
        2.08009          1.7793        0.768226 
        2.08622          1.7685        0.762733 
        2.09237         1.76266        0.757284 
        2.09851         1.75279        0.751887 
        2.10464         1.74843        0.746551 
        2.11077         1.73647        0.741274 
        2.11691         1.72752        0.736036 
        2.12305         1.72152        0.730849 
        2.12918         1.71317        0.725724 
        2.13531         1.70447        0.720647 
        2.14145         1.69513        0.715608 
         2.1476         1.68515        0.710611 
        2.15372          1.6781        0.705687 
        2.15985          1.6696        0.700804 
        2.16599          1.6639        0.695954 
        2.17213         1.65194        0.691155 
        2.17827         1.64738        0.686402 
         2.1844         1.64065        0.681699 
        2.19054         1.63432        0.677037 
        2.19666         1.62477        0.672426 
         2.2028         1.61675        0.667854 
        2.20893          1.6097        0.663323 
        2.21508         1.60381        0.658828 
        2.22122         1.59186        0.654374 
        2.22736         1.58537         0.64997 
        2.23349         1.58249        0.645608 
        2.23962         1.57133        0.641283 
        2.24577         1.56632        0.636995 
         2.2519          1.5571        0.632752 
        2.25802         1.55338        0.628554 
        2.26417          1.5453        0.624383 
        2.27031         1.53869        0.620246 
        2.27644          1.5318        0.616158 
        2.28257         1.52385        0.612108 
        2.28872         1.51779        0.608086 
        2.29486         1.51068        0.604102 
        2.30099          1.5032        0.600161 
        2.30712         1.49567        0.596254 
        2.31326         1.49304        0.592376 
         2.3194         1.48499        0.588534 
        2.32553         1.47975        0.584732 
        2.33166         1.47034        0.580966 
         2.3378         1.46421        0.577228 
        2.34394         1.45737        0.573522 
        2.35007         1.45116        0.569853 
        2.35619         1.44856        0.566221 
        2.36233         1.43854        0.562612 
        2.36848         1.43352        0.559028 
        2.37462         1.42842        0.555482 
        2.38075         1.42135         0.55197 
        2.38689         1.41681        0.548485 
        2.39303         1.40949        0.545032 
        2.39916         1.40326        0.541611 
        2.40529         1.39828         0.53822 
        2.41143           1.391        0.534856 
        2.41757         1.38583        0.531519 
         2.4237         1.38264        0.528217 
        2.42983         1.37308        0.524943 
        2.43598         1.37139        0.521688 
        2.44211         1.36406        0.518466 
        2.44823         1.35845        0.515278 
        2.45437         1.35311        0.512109 
        2.46052         1.34838        0.508964 
        2.46665         1.34242         0.50585 
        2.47279         1.33618        0.502764 
        2.47892         1.33064        0.499702 
        2.48507         1.32657        0.496662 
         2.4912         1.31915        0.493653 
