# k  (h/Mpc)    P(k)  (Mpc/h)^3    P_linear(k)  (Mpc/h)^3
     0.00783031          6500.7            6600 
       0.013688         8126.68         8110.37 
       0.019231         8167.95         8169.76 
      0.0249154         7404.03         7509.75 
      0.0312784         6422.84         6462.55 
      0.0375637         5486.02          5479.3 
      0.0433917         4717.81         4763.39 
      0.0492413          4240.5          4252.7 
      0.0555754         3811.45         3879.61 
      0.0619321         3619.56         3605.14 
       0.067871         3314.62            3366 
      0.0738098         3053.23         3101.73 
      0.0800417         2728.41         2790.26 
      0.0862327         2438.99         2469.18 
      0.0921407         2182.58         2184.26 
      0.0982031         1930.93         1940.11 
       0.104506         1781.57         1750.02 
       0.110769         1646.72         1620.29 
       0.116806         1546.88         1534.64 
       0.122832         1485.21         1467.24 
       0.129052         1392.19         1397.35 
       0.135211         1314.69         1315.95 
       0.141259         1239.94         1222.46 
       0.147318         1150.99         1121.74 
       0.153489         1046.16         1022.29 
       0.159709         972.911         934.904 
       0.165845         920.758         866.525 
       0.171974          862.83         815.987 
       0.178125         825.002         779.088 
       0.184229          795.42         750.033 
        0.19034          747.93         722.322 
       0.196428         731.643         691.698 
       0.202534         704.864         656.344 
       0.208729         663.861          616.89 
       0.214876         623.263         577.118 
       0.220989         597.823           540.2 
       0.227147         562.762         508.082 
        0.23329          538.29         482.017 
       0.239377         524.403           461.5 
       0.245482         491.587          444.64 
       0.251667         486.068         429.345 
       0.257832         469.623         414.081 
       0.263955         452.637         397.869 
       0.270079         435.088         380.461 
        0.27624         426.557         362.321 
       0.282372         408.324         344.633 
        0.28843         393.878         328.415 
       0.294538         375.636         313.934 
       0.300721         371.252         301.321 
        0.30691         354.121         290.452 
       0.313033         346.105         280.878 
       0.319153         333.048         271.856 
       0.325316         324.755         262.827 
        0.33145         314.023         253.646 
       0.337538         309.195         244.352 
       0.343633          298.51         235.072 
       0.349808         288.705         225.982 
       0.355968         283.931         217.505 
       0.362074         276.526         209.813 
       0.368217         268.954         202.821 
       0.374374         259.749         196.431 
       0.380519         255.586         190.495 
       0.386598         249.017         184.879 
       0.392688         245.735         179.352 
        0.39888         239.164         173.781 
       0.405048         233.541         168.287 
       0.411186         228.375         162.926 
       0.417313         223.599         157.775 
       0.423458          218.97          152.88 
       0.429607         213.879         148.276 
       0.435692         207.484         144.021 
       0.441815         205.917         139.996 
       0.447964         202.165         136.151 
       0.454126         193.746          132.44 
       0.460267         191.562         128.849 
       0.466387         188.974         125.347 
        0.47254         184.937         121.901 
       0.478662         183.407         118.571 
       0.484765         177.939         115.371 
       0.490885          175.23         112.293 
       0.497035          172.86         109.337 
       0.503198         168.277         106.517 
       0.509342         165.821         103.834 
       0.515458         163.485         101.267 
       0.521598         161.035         98.7742 
       0.527764         158.611          96.344 
       0.533884         156.162         94.0013 
           0.54         153.536         91.7274 
       0.546137         152.328         89.5111 
       0.552299         149.658         87.3552 
       0.558452         146.939         85.2766 
       0.564573         144.401         83.2849 
       0.570708         142.163         81.3642 
       0.576825         140.333         79.5176 
       0.582926         137.848         77.7365 
       0.589034           135.8         76.0069 
       0.595184         134.227         74.3151 
       0.601379         132.725         72.6604 
       0.607522         129.674         71.0676 
       0.613639         129.252         69.5284 
       0.619772         126.396         68.0314 
       0.625918         125.072         66.5762 
       0.632068         123.674         65.1638 
       0.638161         122.433          63.806 
         0.6443         120.758         62.4784 
       0.650464         119.392         61.1851 
       0.656582          117.81          59.939 
       0.662703         115.893         58.7279 
       0.668861         114.462          57.544 
       0.675024         113.179          56.392 
       0.681124         112.129          55.283 
       0.687237         110.105         54.2014 
       0.693381         108.785         53.1434 
       0.699536         107.738         52.1118 
       0.705665         108.025         51.1122 
       0.711789         105.175         50.1398 
       0.717957         104.701         49.1865 
        0.72409         103.177         48.2637 
       0.730186         101.471         47.3706 
       0.736317         101.191         46.4956 
       0.742472         100.194         45.6399 
       0.748622          99.223         44.8068 
        0.75476         98.2049         43.9965 
       0.760888         96.8232         43.2077 
       0.767043         96.0334         42.4352 
       0.773185         94.9485         41.6834 
       0.779291           94.02         40.9542 
       0.785407         93.3037         40.2415 
       0.791564         92.2739         39.5414 
       0.797719         90.9087         38.8584 
       0.803834         90.5354         38.1961 
       0.809972         89.0902         37.5469 
       0.816124         88.6737         36.9116 
       0.822261         87.8963         36.2928 
       0.828378         87.1156         35.6901 
       0.834502         86.3734         35.1007 
       0.840667         85.4729          34.521 
       0.846816         84.4669          33.956 
       0.852925         83.7851         33.4074 
       0.859047         82.7267         32.8699 
       0.865192         82.3539         32.3425 
       0.871341         81.7474         31.8265 
       0.877463         80.5499         31.3241 
       0.883569         80.0453         30.8339 
       0.889708         79.5617         30.3518 
       0.895864         78.8782         29.8789 
       0.902008         78.1732         29.4171 
       0.908149         77.6724         28.9654 
       0.914301         76.8824         28.5225 
       0.920448         76.3321         28.0894 
       0.926574         75.6642         27.6669 
       0.932687         75.3452          27.254 
       0.938823         74.1555         26.8481 
       0.944975         73.7927         26.4496 
       0.951105         73.1667         26.0607 
       0.957225         72.2701         25.6803 
       0.963368         72.1093         25.3063 
       0.969511          71.666         24.9398 
       0.975621          71.209         24.5826 
       0.981748         70.4601         24.2314 
       0.987916         69.9361          23.885 
        0.99406         69.5103         23.5467 
        1.00019         68.7511         23.2157 
        1.00632         68.4544         22.8913 
        1.01246         67.8365         22.5728 
        1.01859         66.9552         22.2608 
        1.02471         67.1672         21.9552 
        1.03085         66.3981         21.6543 
        1.03698         65.8921         21.3597 
        1.04314         65.2577         21.0694 
        1.04929         64.9187         20.7852 
        1.05541         64.2926         20.5074 
        1.06154         64.1979          20.234 
        1.06769         63.6355         19.9653 
        1.07382         63.3502         19.7023 
        1.07993         62.9885         19.4447 
        1.08607         62.3839         19.1907 
        1.09222         62.0794         18.9409 
        1.09836         61.6304         18.6959 
        1.10449         61.2036         18.4556 
        1.11063         60.6668         18.2192 
        1.11677          60.317         17.9871 
         1.1229         59.9359         17.7595 
        1.12903          59.148         17.5356 
        1.13518          59.375         17.3154 
        1.14131         58.9792         17.0992 
        1.14745         58.2022         16.8867 
        1.15359         58.1127         16.6779 
        1.15973         57.5517         16.4725 
        1.16584         57.2097         16.2716 
        1.17197         56.8933         16.0737 
        1.17811         56.6207         15.8785 
        1.18424         56.0415         15.6872 
        1.19038         55.8266         15.4984 
        1.19652         55.6109         15.3129 
        1.20267         55.1513         15.1304 
        1.20881           54.84         14.9509 
        1.21495         54.3823         14.7747 
        1.22108         54.1034         14.6013 
         1.2272         53.5937         14.4311 
        1.23334         53.4112         14.2632 
        1.23949         53.3026         14.0977 
        1.24562         52.8588         13.9352 
        1.25174         52.6282         13.7756 
        1.25789         52.3372          13.618 
        1.26402         51.8954         13.4631 
        1.27014         51.4491         13.3111 
        1.27628         51.3189         13.1609 
        1.28244         50.9102         13.0128 
        1.28858          50.724         12.8672 
        1.29471         50.5392         12.7242 
        1.30084         50.2246         12.5834 
        1.30697         49.8359         12.4446 
        1.31312         49.4774         12.3077 
        1.31925         49.3957         12.1733 
        1.32537         49.1211         12.0411 
        1.33151         48.6811         11.9103 
        1.33765         48.5964         11.7816 
        1.34378         48.2721         11.6551 
        1.34992         47.8469         11.5303 
        1.35606         47.6034         11.4071 
         1.3622         47.3322         11.2859 
        1.36833          47.124         11.1667 
        1.37445         47.0094         11.0494 
        1.38059         46.6833         10.9333 
        1.38675         46.3493         10.8187 
        1.39288         46.1898         10.7062 
        1.39901         45.8791         10.5953 
        1.40515         45.6569         10.4858 
         1.4113         45.5123         10.3779 
        1.41742         45.1542         10.2719 
        1.42355         44.9276         10.1671 
         1.4297         44.6785         10.0636 
        1.43585         44.5406         9.96152 
        1.44198         44.2449         9.86126 
        1.44809         44.0586         9.76257 
        1.45423         43.8716         9.66488 
        1.46036         43.6545          9.5687 
        1.46649         43.3611         9.47381 
        1.47263         43.1378         9.38013 
        1.47877         43.0167         9.28776 
        1.48491         42.8587          9.1965 
        1.49104         42.5202         9.10666 
        1.49718         42.1301         9.01795 
        1.50333         42.0833         8.93029 
        1.50947         41.8967         8.84398 
         1.5156         41.6234         8.75893 
        1.52172         41.4301         8.67501 
        1.52787         41.3912         8.59202 
          1.534          41.069         8.51022 
        1.54013          40.822         8.42957 
        1.54627         40.7118         8.34982 
        1.55241         40.4398          8.2711 
        1.55855         40.2264          8.1935 
        1.56467          39.902         8.11712 
         1.5708         39.9356          8.0415 
        1.57695         39.6106         7.96673 
        1.58308         39.5312         7.89309 
        1.58922         39.4309         7.82033 
        1.59535          39.156         7.74852 
         1.6015         38.8739         7.67752 
        1.60764         38.7402         7.60744 
        1.61376         38.5564         7.53843 
        1.61989         38.2435         7.47023 
        1.62604         38.2099         7.40272 
        1.63218          38.026         7.33609 
        1.63831         37.8288         7.27044 
        1.64444         37.6687         7.20557 
        1.65059         37.3722         7.14134 
        1.65673         37.2087         7.07796 
        1.66285         37.0827         7.01553 
        1.66898         36.8655         6.95384 
        1.67512         36.7348         6.89277 
        1.68127         36.4904         6.83238 
         1.6874         36.4088         6.77285 
        1.69353         36.1851         6.71406 
        1.69967          36.026         6.65584 
        1.70581         35.9435         6.59833 
        1.71193         35.7398         6.54171 
        1.71806         35.5004         6.48565 
        1.72421         35.3205         6.43013 
        1.73035          35.157         6.37532 
        1.73649         35.0038         6.32117 
        1.74262         34.8546         6.26769 
        1.74876         34.8381          6.2148 
        1.75489         34.5672         6.16262 
        1.76101         34.3931         6.11107 
        1.76715         34.2612         6.06003 
        1.77329         34.1068         6.00952 
        1.77943         33.9749         5.95956 
        1.78557         33.7883         5.91024 
        1.79171         33.6277         5.86148 
        1.79785         33.4659         5.81326 
        1.80399         33.3516         5.76559 
        1.81012         33.2401         5.71852 
        1.81625         33.0091           5.672 
        1.82239         32.9326         5.62594 
        1.82853         32.6697          5.5804 
        1.83466         32.5886         5.53542 
        1.84078         32.3443         5.49098 
        1.84692         32.2767         5.44696 
        1.85306         32.1185         5.40336 
         1.8592         31.9757         5.36032 
        1.86533         31.7995         5.31777 
        1.87147         31.7016         5.27563 
        1.87761         31.6363         5.23393 
        1.88375         31.4555         5.19273 
        1.88988         31.3609         5.15202 
        1.89601          31.146         5.11173 
        1.90215         31.0723         5.07183 
        1.90829         30.9921         5.03238 
        1.91442         30.7546         4.99335 
        1.92056         30.7026         4.95476 
         1.9267         30.4725         4.91655 
        1.93284         30.3143         4.87871 
        1.93897         30.2678         4.84134 
        1.94509         30.0972         4.80445 
        1.95123         29.9677         4.76785 
        1.95737         29.8166          4.7316 
        1.96349         29.7058         4.69583 
        1.96964         29.5394         4.66032 
        1.97578          29.492         4.62517 
        1.98192         29.2936         4.59045 
        1.98805         29.2193         4.55608 
        1.99419          29.039         4.52206 
        2.00033         28.8877         4.48838 
        2.00647         28.8041         4.45505 
         2.0126         28.6666         4.42211 
        2.01874         28.5909         4.38946 
        2.02488         28.5318         4.35711 
        2.03101         28.2999         4.32515 
        2.03714         28.1939         4.29354 
        2.04328         28.0556         4.26221 
        2.04941         27.9865         4.23121 
        2.05554         27.8455         4.20055 
        2.06167         27.7298         4.17016 
        2.06781         27.6107         4.14006 
        2.07396         27.5068         4.11021 
        2.08009         27.4254         4.08071 
        2.08622         27.2654         4.05154 
        2.09237         27.1562         4.02259 
        2.09851          27.037         3.99392 
        2.10464         26.9866         3.96558 
        2.11077         26.7674         3.93755 
        2.11691         26.7189         3.90972 
        2.12305         26.6077         3.88217 
        2.12918         26.5693         3.85495 
        2.13531          26.415         3.82798 
        2.14145         26.3492         3.80121 
         2.1476         26.1574         3.77467 
        2.15372         26.0541         3.74851 
        2.15985         25.9428         3.72258 
        2.16599         25.8785         3.69681 
        2.17213         25.8034         3.67132 
        2.17827         25.5802         3.64608 
         2.1844         25.4923         3.62109 
        2.19054         25.3921         3.59633 
        2.19666         25.3138         3.57184 
         2.2028         25.2338         3.54755 
        2.20893         25.1366         3.52348 
        2.21508         25.0221         3.49961 
        2.22122         24.8476         3.47594 
        2.22736         24.8363         3.45255 
        2.23349         24.7034         3.42938 
        2.23962         24.5945         3.40641 
        2.24577         24.4641         3.38363 
         2.2519         24.4117         3.36109 
        2.25802         24.2876         3.33879 
        2.26417         24.2193         3.31664 
        2.27031         24.1332         3.29466 
        2.27644         24.0152         3.27295 
        2.28257          23.909         3.25143 
        2.28872         23.7875         3.23007 
        2.29486         23.7372         3.20891 
        2.30099         23.6226         3.18798 
        2.30712         23.5744         3.16722 
        2.31326         23.4845         3.14662 
         2.3194         23.3511         3.12621 
        2.32553         23.2461         3.10602 
        2.33166         23.1307         3.08601 
         2.3378          23.037         3.06616 
        2.34394         22.9672         3.04647 
        2.35007         22.8655         3.02698 
        2.35619         22.7588         3.00769 
        2.36233         22.7243         2.98852 
        2.36848         22.5577         2.96948 
        2.37462         22.4874         2.95064 
        2.38075         22.4138         2.93199 
        2.38689         22.3557         2.91348 
        2.39303         22.2147         2.89513 
        2.39916         22.1293         2.87697 
        2.40529         22.0365         2.85895 
        2.41143         21.9775         2.84108 
        2.41757         21.8808         2.82336 
         2.4237         21.7801         2.80582 
        2.42983         21.7004         2.78843 
        2.43598         21.6325         2.77114 
        2.44211          21.527         2.75402 
        2.44823         21.4147         2.73709 
        2.45437         21.3559         2.72025 
        2.46052         21.2824         2.70355 
        2.46665         21.2171         2.68701 
        2.47279         21.0996         2.67062 
        2.47892         21.0367         2.65435 
        2.48507         20.9495          2.6382 
         2.4912          20.895         2.62222 
