#  k  (h/Mpc)          P(k)  (Mpc/h)^3     P_linear(k) (Mpc/h)^3
     0.00783031         3341.38         3377.94 
       0.013688          4163.4         4156.84 
       0.019231         4195.18         4191.11 
      0.0249154         3820.55         3854.89 
      0.0312784         3310.35         3318.71 
      0.0375637          2822.5         2814.51 
      0.0433917            2436         2447.22 
      0.0492413         2185.26         2185.16 
      0.0555754         1973.47         1993.68 
      0.0619321         1862.71         1852.79 
       0.067871          1715.5            1730 
      0.0738098         1580.02         1594.26 
      0.0800417         1414.86         1434.23 
      0.0862327         1261.12         1269.23 
      0.0921407         1123.32         1122.81 
      0.0982031         994.224         997.328 
       0.104506         911.085          899.63 
       0.110769         842.321         832.953 
       0.116806         791.376         788.935 
       0.122832         760.391         754.296 
       0.129052         716.179         718.376 
       0.135211         675.166         676.532 
       0.141259         633.731         628.474 
       0.147318         586.374         576.702 
       0.153489         532.884         525.577 
       0.159709         492.023         480.653 
       0.165845         462.982         445.499 
       0.171974         432.622         419.519 
       0.178125         414.118          400.55 
       0.184229         399.608         385.614 
        0.19034         377.615         371.369 
       0.196428         367.298         355.625 
       0.202534         353.165          337.45 
       0.208729         331.406         317.166 
       0.214876         309.655         296.718 
       0.220989         295.506         277.739 
       0.227147         276.467         261.225 
        0.23329         263.692         247.825 
       0.239377         255.364         237.276 
       0.245482         241.293         228.608 
       0.251667         237.204         220.745 
       0.257832          229.21         212.898 
       0.263955         220.464         204.563 
       0.270079         211.664         195.612 
        0.27624         205.701         186.286 
       0.282372         196.696         177.192 
        0.28843         187.933         168.854 
       0.294538         179.845         161.409 
       0.300721           176.1         154.924 
        0.30691         168.173         149.336 
       0.313033         163.565         144.414 
       0.319153         156.411         139.774 
       0.325316         153.596         135.133 
        0.33145         147.908         130.413 
       0.337538         144.665         125.634 
       0.343633         139.394         120.863 
       0.349808         134.932          116.19 
       0.355968         131.413         111.831 
       0.362074         127.227         107.876 
       0.368217         123.557         104.281 
       0.374374         119.923         100.996 
       0.380519         117.132         97.9439 
       0.386598             114         95.0564 
       0.392688         111.832         92.2149 
        0.39888          108.71         89.3505 
       0.405048         106.067         86.5256 
       0.411186         103.573         83.7693 
       0.417313         100.506         81.1213 
       0.423458         98.0824          78.604 
       0.429607         95.5446         76.2374 
       0.435692         92.4067         74.0491 
       0.441815         91.3997           71.98 
       0.447964          89.844         70.0027 
       0.454126         85.9786         68.0951 
       0.460267         84.8044         66.2487 
       0.466387         82.8411         64.4478 
        0.47254         81.4498         62.6762 
       0.478662         80.1978         60.9643 
       0.484765         77.8688          59.319 
       0.490885         76.2932         57.7364 
       0.497035         75.2972         56.2168 
       0.503198         73.2399         54.7667 
       0.509342         71.4819          53.387 
       0.515458         70.2774         52.0672 
       0.521598         69.2403         50.7855 
       0.527764         67.9814         49.5361 
       0.533884         66.8391         48.3316 
           0.54         65.4506         47.1624 
       0.546137         64.6364         46.0229 
       0.552299         63.6496         44.9144 
       0.558452         61.8418         43.8457 
       0.564573         60.7894         42.8218 
       0.570708         60.0158         41.8341 
       0.576825         58.8212         40.8847 
       0.582926         57.6448         39.9689 
       0.589034         56.3507         39.0796 
       0.595184         55.6706         38.2098 
       0.601379         54.8515          37.359 
       0.607522         53.5958         36.5401 
       0.613639         53.3394         35.7487 
       0.619772         52.0082          34.979 
       0.625918          51.676         34.2308 
       0.632068         50.9088         33.5046 
       0.638161         50.0439         32.8064 
         0.6443         49.1904         32.1239 
       0.650464         48.4277         31.4589 
       0.656582         48.0282         30.8182 
       0.662703         47.0629         30.1955 
       0.668861         46.3938         29.5868 
       0.675024         45.7015         28.9945 
       0.681124         44.9272         28.4243 
       0.687237         44.1761         27.8682 
       0.693381         43.8445         27.3242 
       0.699536          42.895         26.7938 
       0.705665         43.0062         26.2798 
       0.711789         41.8974         25.7799 
       0.717957         41.4539         25.2897 
        0.72409         40.8896         24.8153 
       0.730186         40.2603         24.3561 
       0.736317         39.9849         23.9062 
       0.742472         39.2937         23.4662 
       0.748622         38.9679         23.0379 
        0.75476         38.4061         22.6213 
       0.760888         37.8213         22.2157 
       0.767043         37.4158         21.8185 
       0.773185         36.8536         21.4319 
       0.779291         36.6964          21.057 
       0.785407          36.302         20.6906 
       0.791564         35.6691         20.3306 
       0.797719         34.9752         19.9795 
       0.803834         34.9318         19.6389 
       0.809972         34.4983         19.3052 
       0.816124         33.8326         18.9785 
       0.822261         33.6091         18.6603 
       0.828378          33.342         18.3504 
       0.834502         32.9561         18.0474 
       0.840667         32.6039         17.7493 
       0.846816         32.0853         17.4589 
       0.852925         31.8124         17.1768 
       0.859047         31.4291         16.9004 
       0.865192         31.1559         16.6293 
       0.871341         31.0002         16.3639 
       0.877463         30.3792         16.1056 
       0.883569         30.1076         15.8536 
       0.889708         29.8122         15.6057 
       0.895864         29.5519         15.3626 
       0.902008         29.3132         15.1251 
       0.908149         29.0142         14.8929 
       0.914301         28.9073         14.6652 
       0.920448         28.3599         14.4425 
       0.926574         28.1695         14.2252 
       0.932687         27.8734         14.0129 
       0.938823         27.4996         13.8042 
       0.944975         27.3252         13.5994 
       0.951105         27.0801         13.3994 
       0.957225         26.7635         13.2038 
       0.963368         26.6448         13.0115 
       0.969511         26.4001         12.8231 
       0.975621         26.1904         12.6394 
       0.981748         25.8176         12.4589 
       0.987916         25.6957         12.2807 
        0.99406         25.4205         12.1068 
        1.00019         25.1142         11.9366 
        1.00632         24.9935         11.7698 
        1.01246         24.8168          11.606 
        1.01859         24.4488         11.4456 
        1.02471         24.4109         11.2885 
        1.03085         24.1776         11.1338 
        1.03698         23.8031         10.9823 
        1.04314         23.6611         10.8331 
        1.04929         23.4396         10.6869 
        1.05541         23.2032         10.5441 
        1.06154         23.0984         10.4036 
        1.06769          22.946         10.2654 
        1.07382         22.7024         10.1302 
        1.07993         22.6047         9.99771 
        1.08607         22.3062         9.86709 
        1.09222          22.209         9.73868 
        1.09836         21.9444         9.61272 
        1.10449         21.8304         9.48915 
        1.11063         21.5673         9.36762 
        1.11677         21.5029         9.24828 
         1.1229         21.3949         9.13123 
        1.12903         21.1083         9.01613 
        1.13518          20.918         8.90292 
        1.14131         20.8717         8.79173 
        1.14745         20.6947         8.68251 
        1.15359         20.5881         8.57514 
        1.15973         20.3659         8.46955 
        1.16584         20.1259         8.36622 
        1.17197         20.1411         8.26448 
        1.17811         19.8857         8.16412 
        1.18424         19.7256         8.06574 
        1.19038          19.671          7.9687 
        1.19652         19.5184         7.87329 
        1.20267         19.3631         7.77946 
        1.20881          19.247         7.68719 
        1.21495         19.1208         7.59656 
        1.22108          18.956         7.50741 
         1.2272         18.7758         7.41991 
        1.23334         18.6877         7.33361 
        1.23949          18.515         7.24848 
        1.24562          18.462         7.16495 
        1.25174         18.3467         7.08287 
        1.25789         18.2051         7.00183 
        1.26402         18.1303         6.92222 
        1.27014         17.9412         6.84404 
        1.27628         17.7721         6.76684 
        1.28244         17.7249         6.69069 
        1.28858         17.6615         6.61582 
        1.29471         17.4908         6.54227 
        1.30084         17.3526         6.46992 
        1.30697         17.2562         6.39855 
        1.31312         17.0933         6.32816 
        1.31925         16.9936         6.25906 
        1.32537         16.9492         6.19106 
        1.33151         16.7971         6.12384 
        1.33765         16.7248         6.05765 
        1.34378         16.6318         5.99258 
        1.34992         16.4363         5.92842 
        1.35606         16.4145         5.86507 
         1.3622         16.3099         5.80275 
        1.36833         16.1747          5.7415 
        1.37445         16.1343         5.68116 
        1.38059          16.019          5.6215 
        1.38675          15.849         5.56257 
        1.39288         15.8191         5.50471 
        1.39901         15.6874         5.44771 
        1.40515         15.6246          5.3914 
         1.4113          15.512          5.3359 
        1.41742         15.3991          5.2814 
        1.42355         15.3394         5.22756 
         1.4297         15.2649         5.17431 
        1.43585          15.212         5.12183 
        1.44198         15.0674         5.07028 
        1.44809         14.9993         5.01954 
        1.45423         14.9111         4.96931 
        1.46036         14.8421         4.91986 
        1.46649         14.7673         4.87107 
        1.47263         14.6413          4.8229 
        1.47877         14.5719         4.77541 
        1.48491         14.5109         4.72849 
        1.49104          14.452         4.68229 
        1.49718         14.3362         4.63668 
        1.50333         14.2822         4.59161 
        1.50947         14.2078         4.54723 
         1.5156         14.0896         4.50351 
        1.52172         14.0266         4.46036 
        1.52787         13.9622         4.41769 
          1.534         13.8667         4.37563 
        1.54013          13.771         4.33416 
        1.54627         13.7061         4.29316 
        1.55241          13.645         4.25268 
        1.55855         13.5741         4.21279 
        1.56467         13.4975         4.17351 
         1.5708         13.4787         4.13463 
        1.57695         13.3536         4.09619 
        1.58308         13.3127         4.05833 
        1.58922         13.2423         4.02092 
        1.59535         13.1733         3.98399 
         1.6015         13.0829         3.94749 
        1.60764         13.0237         3.91145 
        1.61376         12.9879         3.87597 
        1.61989         12.8712         3.84091 
        1.62604         12.8634          3.8062 
        1.63218         12.7752         3.77194 
        1.63831         12.7327         3.73818 
        1.64444         12.6238         3.70483 
        1.65059         12.5673          3.6718 
        1.65673         12.5466         3.63921 
        1.66285         12.4221         3.60712 
        1.66898         12.4093          3.5754 
        1.67512         12.3454           3.544 
        1.68127         12.2749         3.51295 
         1.6874         12.2143         3.48234 
        1.69353         12.1505         3.45211 
        1.69967         12.0924         3.42217 
        1.70581         12.0397         3.39261 
        1.71193         11.9662          3.3635 
        1.71806         11.9385         3.33467 
        1.72421          11.851         3.30613 
        1.73035         11.8191         3.27795 
        1.73649         11.7645          3.2501 
        1.74262         11.7263         3.22261 
        1.74876         11.6687         3.19541 
        1.75489         11.6107         3.16858 
        1.76101         11.5242         3.14208 
        1.76715         11.5264         3.11583 
        1.77329         11.4298         3.08986 
        1.77943         11.3759         3.06418 
        1.78557         11.3495         3.03882 
        1.79171         11.3115         3.01375 
        1.79785         11.2209         2.98895 
        1.80399         11.1835         2.96444 
        1.81012         11.1465         2.94025 
        1.81625         11.0781         2.91633 
        1.82239         11.0384         2.89264 
        1.82853         10.9602         2.86923 
        1.83466         10.9266          2.8461 
        1.84078         10.8519         2.82325 
        1.84692         10.8457         2.80062 
        1.85306         10.7843          2.7782 
         1.8592         10.7337         2.75607 
        1.86533         10.7008         2.73419 
        1.87147         10.6504         2.71253 
        1.87761         10.6144         2.69109 
        1.88375         10.5305          2.6699 
        1.88988         10.5294         2.64897 
        1.89601          10.473         2.62825 
        1.90215         10.4139         2.60774 
        1.90829         10.3743         2.58746 
        1.91442         10.3302         2.56739 
        1.92056         10.2968         2.54755 
         1.9267         10.2491          2.5279 
        1.93284         10.1922         2.50844 
        1.93897         10.1396         2.48923 
        1.94509         10.1081         2.47026 
        1.95123         10.0739         2.45145 
        1.95737         10.0329         2.43281 
        1.96349         9.98842         2.41442 
        1.96964         9.93679         2.39616 
        1.97578         9.90157         2.37808 
        1.98192         9.84905         2.36023 
        1.98805         9.82655         2.34256 
        1.99419         9.77741         2.32507 
        2.00033         9.74917         2.30775 
        2.00647         9.70883         2.29061 
         2.0126         9.64673         2.27368 
        2.01874         9.61925         2.25689 
        2.02488         9.56276         2.24026 
        2.03101         9.55164         2.22382 
        2.03714         9.50361         2.20757 
        2.04328          9.4688         2.19146 
        2.04941         9.41455         2.17553 
        2.05554          9.3998         2.15976 
        2.06167         9.34443         2.14413 
        2.06781         9.32971         2.12866 
        2.07396         9.29455         2.11331 
        2.08009         9.25032         2.09814 
        2.08622         9.18959         2.08314 
        2.09237         9.18602         2.06826 
        2.09851          9.1534         2.05352 
        2.10464          9.1015         2.03895 
        2.11077         9.05447         2.02453 
        2.11691         9.01911         2.01023 
        2.12305         8.99538         1.99606 
        2.12918         8.96846         1.98206 
        2.13531         8.92956          1.9682 
        2.14145         8.89743         1.95444 
         2.1476         8.86019         1.94079 
        2.15372         8.82864         1.92734 
        2.15985         8.80411         1.91401 
        2.16599         8.76496         1.90076 
        2.17213         8.73968         1.88765 
        2.17827          8.7046         1.87467 
         2.1844          8.6673         1.86182 
        2.19054         8.61448         1.84909 
        2.19666         8.60443          1.8365 
         2.2028         8.56715         1.82401 
        2.20893         8.55026         1.81164 
        2.21508          8.4992         1.79936 
        2.22122          8.4612          1.7872 
        2.22736         8.44207         1.77517 
        2.23349         8.39592         1.76325 
        2.23962         8.38676         1.75144 
        2.24577         8.34134         1.73973 
         2.2519         8.32182         1.72814 
        2.25802         8.28426         1.71668 
        2.26417         8.25509         1.70529 
        2.27031         8.22033         1.69399 
        2.27644         8.19318         1.68282 
        2.28257         8.17105         1.67176 
        2.28872         8.13054         1.66078 
        2.29486         8.10768          1.6499 
        2.30099         8.09861         1.63913 
        2.30712         8.06234         1.62846 
        2.31326         8.01687         1.61787 
         2.3194         7.98453         1.60738 
        2.32553         7.97253         1.59699 
        2.33166         7.93209         1.58671 
         2.3378         7.90975          1.5765 
        2.34394         7.88194         1.56638 
        2.35007         7.84457         1.55636 
        2.35619         7.81545         1.54644 
        2.36233         7.78584         1.53658 
        2.36848         7.77482         1.52679 
        2.37462         7.74454         1.51711 
        2.38075         7.70642         1.50751 
        2.38689         7.68484           1.498 
        2.39303         7.65465         1.48857 
        2.39916         7.63462         1.47922 
        2.40529         7.61376         1.46996 
        2.41143          7.5776         1.46078 
        2.41757         7.57117         1.45166 
         2.4237         7.53304         1.44264 
        2.42983         7.50663          1.4337 
        2.43598         7.49468         1.42481 
        2.44211         7.45504         1.41601 
        2.44823         7.43737         1.40731 
        2.45437         7.41497         1.39865 
        2.46052         7.37088         1.39006 
        2.46665         7.35482         1.38156 
        2.47279         7.32584         1.37313 
        2.47892         7.29556         1.36476 
        2.48507         7.27462         1.35646 
         2.4912         7.25176         1.34824 
